Wavelength	signature0009.asd
350	 7.51532553780578E-02
351	 8.05151488815905E-02
352	 7.68897024324427E-02
353	 7.57755388134457E-02
354	 8.90545127179536E-02
355	 7.29848113981376E-02
356	 6.90937199051499E-02
357	 7.80758352336532E-02
358	 7.00860232252146E-02
359	 0.066585514335299
360	 6.89757328981408E-02
361	 0.073665443312668
362	 7.43868169436662E-02
363	 7.32383050377845E-02
364	 6.98366297833944E-02
365	 6.60300565550365E-02
366	 7.01775779020472E-02
367	 0.074180387685697
368	 7.43474557228423E-02
369	 7.13201801729103E-02
370	 7.68909825117614E-02
371	 7.71965249177604E-02
372	 7.35258244394999E-02
373	 7.55723784752837E-02
374	 7.43854899993383E-02
375	 0.073654790595903
376	 7.52496615694067E-02
377	 7.73768168029888E-02
378	 7.30217358615739E-02
379	 7.25203962301143E-02
380	 7.90889885861682E-02
381	 7.39464388383254E-02
382	 7.22954323474834E-02
383	 7.30489226952246E-02
384	 7.20871631260824E-02
385	 7.42107648769496E-02
386	 0.074906855407671
387	 7.36035689878573E-02
388	 7.23021117159418E-02
389	 0.072481801871522
390	 7.26589353971497E-02
391	 7.29271221458654E-02
392	 7.52095967093152E-02
393	 0.074867153102931
394	 7.40542971219439E-02
395	 7.43863073026017E-02
396	 7.35997661567983E-02
397	 7.20660734965211E-02
398	 7.21266386557984E-02
399	 7.49755030090496E-02
400	 7.51219638031503E-02
401	 7.40784584919787E-02
402	 7.39963614582102E-02
403	 7.63569429685906E-02
404	 7.53259953288925E-02
405	 7.36646910112229E-02
406	 7.32345533056966E-02
407	 7.35212606651219E-02
408	 0.073803385638755
409	 7.39550704045753E-02
410	 0.074061962287231
411	 7.43455806033284E-02
412	 7.42443004001915E-02
413	 7.43658812980037E-02
414	 7.53480555705969E-02
415	 7.57306474057249E-02
416	 7.47435618281462E-02
417	 0.073417974874638
418	 7.39536962548624E-02
419	 7.46613316646216E-02
420	 7.45682873669638E-02
421	 7.39664433350719E-02
422	 7.51592527183332E-02
423	 7.51401919169775E-02
424	 7.44480139075159E-02
425	 0.074351806069618
426	 7.48131651198788E-02
427	 7.54020867354455E-02
428	 7.55707675199301E-02
429	 7.49656255979098E-02
430	 0.075213376051571
431	 7.57073765274785E-02
432	 7.58615584134822E-02
433	 7.54660387290669E-02
434	 7.55453892116017E-02
435	 7.55986791936887E-02
436	 7.52478474097767E-02
437	 7.55554594892075E-02
438	 7.59425177682065E-02
439	 7.61334369864206E-02
440	 7.60568848514678E-02
441	 7.58675798573968E-02
442	 7.61684076327021E-02
443	 7.66401311809655E-02
444	 7.60539398202147E-02
445	 7.67887316380847E-02
446	 7.73088620450036E-02
447	 7.66550337662335E-02
448	 7.72180666656005E-02
449	 7.74622461543654E-02
450	 7.73122386513637E-02
451	 7.72646801278949E-02
452	 0.077640213298814
453	 7.79698351232447E-02
454	 7.81165844972719E-02
455	 7.82929343920007E-02
456	 7.83578390701253E-02
457	 7.84817395269475E-02
458	 7.87209110610519E-02
459	 7.88175426804022E-02
460	 0.078503799859294
461	 7.82956625245429E-02
462	 0.078692204450179
463	 7.86282068075076E-02
464	 7.88271229532931E-02
465	 7.93126430657653E-02
466	 7.95009891998596E-02
467	 7.96961470573467E-02
468	 7.98960302583436E-02
469	 8.00213822338426E-02
470	 7.98806368543128E-02
471	 8.03238149261924E-02
472	 8.07610865005668E-02
473	 0.080477925352015
474	 8.04482649573172E-02
475	 0.080390756525283
476	 8.03921317901589E-02
477	 8.07652026061162E-02
478	 8.05837059475858E-02
479	 8.05834510510954E-02
480	 8.10815247180484E-02
481	 8.12159673807032E-02
482	 8.12529964307519E-02
483	 8.13648303407652E-02
484	 8.16214986823837E-02
485	 8.17431407380041E-02
486	 0.081744504461522
487	 8.17549213608018E-02
488	 8.19531819266162E-02
489	 8.21199450746621E-02
490	 8.23509473827446E-02
491	 8.26377521118468E-02
492	 8.26914051790017E-02
493	 8.29757062291673E-02
494	 0.083093583641487
495	 8.27427777473555E-02
496	 8.32429321892614E-02
497	 8.35169885613385E-02
498	 8.34286381721617E-02
499	 8.36027816622122E-02
500	 8.38248692349851E-02
501	 8.39467592201186E-02
502	 8.40120594430463E-02
503	 8.44359643627789E-02
504	 8.46293764734812E-02
505	 8.47111828546777E-02
506	 8.49315318471818E-02
507	 8.49646085621788E-02
508	 8.51955487470649E-02
509	 8.55187649487358E-02
510	 8.54609361546848E-02
511	 8.56274815227041E-02
512	 8.59110943892348E-02
513	 8.61409713546989E-02
514	 8.62348027929657E-02
515	 8.65774056295967E-02
516	 8.67558862564057E-02
517	 8.64109964287507E-02
518	 8.70043410309707E-02
519	 8.73344916852003E-02
520	 8.72313775757821E-02
521	 0.087564624853553
522	 8.77796731709159E-02
523	 8.80102682063203E-02
524	 8.83331832339025E-02
525	 8.84047686339538E-02
526	 8.84905052483375E-02
527	 8.87086096301592E-02
528	 8.90719132084524E-02
529	 8.93578173379869E-02
530	 8.96835042501938E-02
531	 8.99874657437429E-02
532	 9.00150266618307E-02
533	 9.03663488200835E-02
534	 9.08670678539799E-02
535	 9.12488650717353E-02
536	 9.14286999996327E-02
537	 9.18021921874594E-02
538	 0.092222409424829
539	 9.23796214038611E-02
540	 0.09284644226087
541	 9.32600345457279E-02
542	 9.35409752157876E-02
543	 9.40600163309252E-02
544	 9.44732651756684E-02
545	 9.48951994567058E-02
546	 9.54711191829522E-02
547	 9.60932776598254E-02
548	 9.67241576368126E-02
549	 9.73446995696171E-02
550	 9.79620003679609E-02
551	 9.86935123392063E-02
552	 0.099449738311801
553	 0.100178512899083
554	 0.100925126367194
555	 0.101692440230793
556	 0.102470768955991
557	 0.103262832133262
558	 0.104124245600055
559	 0.105080838056908
560	 0.106053861913406
561	 0.10691170363744
562	 0.107896334189123
563	 0.10890051887817
564	 0.10989708254723
565	 0.111151892491578
566	 0.112157116662722
567	 0.113109878412588
568	 0.11433384191119
569	 0.115388972274561
570	 0.116453074928007
571	 0.117576447036546
572	 0.118665498617031
573	 0.119854388087743
574	 0.1210518404049
575	 0.122187434705549
576	 0.123321363820284
577	 0.124594975550766
578	 0.125926051560839
579	 0.127150017418646
580	 0.128346433174193
581	 0.129512943567258
582	 0.130668299492879
583	 0.13185345678933
584	 0.13303523533188
585	 0.13420831273133
586	 0.135353227370816
587	 0.136385939342258
588	 0.137458666177101
589	 0.13853121245296
590	 0.139474941426145
591	 0.140446653178341
592	 0.141394371480977
593	 0.142316461992775
594	 0.143310546224336
595	 0.144265231664041
596	 0.145144187304952
597	 0.145949987132576
598	 0.146762486449606
599	 0.147576200765883
600	 0.148357463838619
601	 0.149058090144005
602	 0.149763447109163
603	 0.150484335880645
604	 0.151190704823494
605	 0.151793235587529
606	 0.152296207407903
607	 0.152833457781126
608	 0.153484723337094
609	 0.153858195061732
610	 0.154196815536601
611	 0.15469074547782
612	 0.155413599780406
613	 0.155774874581868
614	 0.156073552917544
615	 0.156562649896027
616	 0.156989587962411
617	 0.157417086486691
618	 0.157853397448423
619	 0.15828810719765
620	 0.158693828655361
621	 0.159031346325959
622	 0.159351112864305
623	 0.159793651589217
624	 0.160118680931052
625	 0.160376176485259
626	 0.160667289497313
627	 0.161052424499898
628	 0.161417455895971
629	 0.161743572795862
630	 0.162061338313908
631	 0.162351421996438
632	 0.162661590951579
633	 0.163005710412213
634	 0.163344336922705
635	 0.163717057213379
636	 0.16407922974828
637	 0.164399539873524
638	 0.164762068240313
639	 0.165118875540501
640	 0.165486385610567
641	 0.165906348390437
642	 0.166265779137461
643	 0.166606399771768
644	 0.166965662590026
645	 0.16734624311945
646	 0.167633333387189
647	 0.16793380560489
648	 0.168346668368861
649	 0.168655605601286
650	 0.168968296922478
651	 0.169313878776626
652	 0.169657726554466
653	 0.170002954341437
654	 0.170372238053632
655	 0.170749122711947
656	 0.171034015393666
657	 0.171329842357746
658	 0.171661984995233
659	 0.172009140673434
660	 0.172256493369472
661	 0.172597876414039
662	 0.173049149447151
663	 0.173459545808102
664	 0.173734125119802
665	 0.174041349782096
666	 0.174471598454753
667	 0.174842296837698
668	 0.1753130672273
669	 0.175794708955756
670	 0.176147194661084
671	 0.176460740621948
672	 0.176863518729443
673	 0.177330794646324
674	 0.177698087427026
675	 0.178023477138857
676	 0.178417828988253
677	 0.178912332687752
678	 0.179338161875358
679	 0.179671087924647
680	 0.180042637109747
681	 0.180591770115675
682	 0.181087073605609
683	 0.181535128376791
684	 0.181973134905528
685	 0.182451624214293
686	 0.182984964638742
687	 0.183519331002158
688	 0.18401644167538
689	 0.184505787566859
690	 0.185027126678054
691	 0.185569222665399
692	 0.186112968915248
693	 0.186751531717453
694	 0.187331803309221
695	 0.187825377661997
696	 0.188349643695968
697	 0.188869785378011
698	 0.189423742526431
699	 0.189999470971883
700	 0.190423560948069
701	 0.190880265178082
702	 0.191413355775303
703	 0.191973471685112
704	 0.192351124703967
705	 0.192775467151645
706	 0.193303413504938
707	 0.193782864489535
708	 0.194209494160294
709	 0.194606812917327
710	 0.195006935721517
711	 0.195438641355019
712	 0.19588953555809
713	 0.196336553759525
714	 0.196759681948487
715	 0.197192465833323
716	 0.197598002142132
717	 0.197987861429431
718	 0.198420463116699
719	 0.198837994708672
720	 0.199223851777907
721	 0.199580783363844
722	 0.199924646329992
723	 0.200356914583301
724	 0.20077895332327
725	 0.201070404244276
726	 0.201420752361029
727	 0.201757198649681
728	 0.202072642153133
729	 0.202420144101926
730	 0.202696265747742
731	 0.202999624373892
732	 0.203349787337185
733	 0.203545660535616
734	 0.203772917731634
735	 0.204074751716305
736	 0.204422973674121
737	 0.20471478982783
738	 0.204936941924394
739	 0.205130523834945
740	 0.205366139527035
741	 0.205604158342633
742	 0.205832483386763
743	 0.206044710508954
744	 0.206239575455995
745	 0.20637967391732
746	 0.206566015033183
747	 0.206853498348673
748	 0.207014240566999
749	 0.207150889270262
750	 0.207332625031299
751	 0.207576127527453
752	 0.207676210631969
753	 0.207781397610749
754	 0.207952582028994
755	 0.208101541419818
756	 0.208216728393654
757	 0.208353664230691
758	 0.208520870921369
759	 0.208561072124516
760	 0.208599046098219
761	 0.208676319974032
762	 0.208782608300097
763	 0.208826927337058
764	 0.208893463353929
765	 0.2089660460556
766	 0.20894970772526
767	 0.209031678580365
768	 0.209069186902865
769	 0.209020472952693
770	 0.209110572863171
771	 0.209200782618464
772	 0.209250951223313
773	 0.209262855571914
774	 0.209281173354881
775	 0.209303115337796
776	 0.209308910485238
777	 0.209280412714751
778	 0.209282817946525
779	 0.209294517943117
780	 0.20929808281465
781	 0.209290418589215
782	 0.209238419143556
783	 0.209228426625939
784	 0.209286706046165
785	 0.209259541933269
786	 0.209150471781261
787	 0.209094313912344
788	 0.209186537617805
789	 0.209144049373726
790	 0.209064652402232
791	 0.209014900228604
792	 0.209016578468049
793	 0.208973742399696
794	 0.208919161702841
795	 0.208859499265664
796	 0.208752900228471
797	 0.208720091656085
798	 0.20868158575052
799	 0.208579929954441
800	 0.208523538169921
801	 0.208416491041815
802	 0.208286471251605
803	 0.208199428867915
804	 0.208188107132399
805	 0.208104918085337
806	 0.207980940326189
807	 0.207946063286131
808	 0.207830226888254
809	 0.207771171917147
810	 0.207753595225487
811	 0.207557816332592
812	 0.207458183966901
813	 0.207345718065314
814	 0.207182705516153
815	 0.207261421853086
816	 0.207220605200815
817	 0.207113732532508
818	 0.207066771542537
819	 0.206918484347242
820	 0.206874126540381
821	 0.206890067654222
822	 0.206805977951479
823	 0.20670678411613
824	 0.206666737130885
825	 0.206700780285572
826	 0.206751968269746
827	 0.206613624144494
828	 0.206507041830044
829	 0.2065245924932
830	 0.206445347736719
831	 0.206385405478327
832	 0.206306672764944
833	 0.206193571494016
834	 0.206197765196831
835	 0.206119216632425
836	 0.206022501827367
837	 0.206025988347509
838	 0.206011192886891
839	 0.205989067089279
840	 0.205924131717593
841	 0.205788421810786
842	 0.20581227636833
843	 0.205814609106243
844	 0.20573283220987
845	 0.205663696361903
846	 0.205651164433896
847	 0.205633906719285
848	 0.20559652991536
849	 0.205620143546372
850	 0.205556288292647
851	 0.20549593360856
852	 0.205532315857309
853	 0.205636859865863
854	 0.205583313464201
855	 0.205488204138353
856	 0.20551687469917
857	 0.205543979050965
858	 0.205529112746506
859	 0.205478569239657
860	 0.205441837029997
861	 0.205535457646763
862	 0.205640944313736
863	 0.205690615539909
864	 0.205684684120071
865	 0.205729696342186
866	 0.205704091886634
867	 0.205662855322629
868	 0.205835390504741
869	 0.205819277992158
870	 0.205818558084047
871	 0.205931981738984
872	 0.20595002509206
873	 0.205924120461013
874	 0.205967306378196
875	 0.206110341160187
876	 0.206177026945928
877	 0.206303883631086
878	 0.206442932370585
879	 0.20652198507572
880	 0.206556096261983
881	 0.206641786063109
882	 0.206743215195605
883	 0.206804558152997
884	 0.206928802336703
885	 0.207025471978382
886	 0.207078314211328
887	 0.207125072807359
888	 0.207240020878477
889	 0.207316451727822
890	 0.20743431221884
891	 0.207740818835203
892	 0.207879066659085
893	 0.208006105552106
894	 0.20813647481268
895	 0.208155253620444
896	 0.208356165963737
897	 0.208627952810459
898	 0.208834072295497
899	 0.208899289400461
900	 0.209035347840316
901	 0.209261285161565
902	 0.209506126461194
903	 0.20964065364559
904	 0.209872288962568
905	 0.209987578315072
906	 0.20997325771364
907	 0.210263061242197
908	 0.210415270894418
909	 0.210560889929527
910	 0.210807235526732
911	 0.210938896850131
912	 0.21128354179175
913	 0.211611639797841
914	 0.211747418321616
915	 0.21201125052674
916	 0.21220079848457
917	 0.212427012970394
918	 0.212755861814581
919	 0.212869875954451
920	 0.213012398910773
921	 0.213262033620415
922	 0.213588252885834
923	 0.213820952867831
924	 0.21399152810578
925	 0.214151170372935
926	 0.214341582592879
927	 0.214515687045947
928	 0.214863002223385
929	 0.215250541630872
930	 0.215488372913081
931	 0.215711531926224
932	 0.215917084090041
933	 0.216168675652649
934	 0.216497742553402
935	 0.216720642351067
936	 0.216871294812175
937	 0.217057296178234
938	 0.217389052749424
939	 0.217873813637851
940	 0.218196857681965
941	 0.218377960155583
942	 0.218605007712541
943	 0.218987268075105
944	 0.219215019605222
945	 0.219443404402704
946	 0.21991759661593
947	 0.220257583590054
948	 0.220452412273764
949	 0.220697454004788
950	 0.221152759844621
951	 0.221450755824217
952	 0.221575509955262
953	 0.221863523652265
954	 0.222511479001306
955	 0.222533169789219
956	 0.222893008087914
957	 0.223516101521369
958	 0.223948482269898
959	 0.224257892030985
960	 0.224494456429464
961	 0.22478218212923
962	 0.225147472818318
963	 0.225186344402254
964	 0.225502606123139
965	 0.226045887259886
966	 0.226530842265736
967	 0.226781511117381
968	 0.227311960977364
969	 0.227762089091131
970	 0.227898566869335
971	 0.228643086523917
972	 0.228853040257547
973	 0.228972951582275
974	 0.229533993126909
975	 0.230132160295433
976	 0.23054950129088
977	 0.230936605762642
978	 0.23139284195334
979	 0.231714960248328
980	 0.23207915146355
981	 0.23246802307464
982	 0.2327930384919
983	 0.232961712418442
984	 0.233414361162013
985	 0.234176253565984
986	 0.23487694305089
987	 0.234927263627225
988	 0.235445868236863
989	 0.235582384579108
990	 0.23556460717964
991	 0.23662570127224
992	 0.236888461264393
993	 0.236905962639705
994	 0.237214701011916
995	 0.237950823608876
996	 0.23847031617445
997	 0.238849014488432
998	 0.239270781050066
999	 0.23977758074046
1000	 0.239628815494937
1001	 0.241797526658948
1002	 0.242128043798768
1003	 0.242530279394759
1004	 0.24301557825883
1005	 0.243513041668606
1006	 0.243825424916205
1007	 0.244089694688416
1008	 0.244379770860232
1009	 0.244670216077916
1010	 0.24485953860104
1011	 0.24529025741234
1012	 0.24568347861137
1013	 0.245955007927015
1014	 0.246301015278717
1015	 0.246569047507951
1016	 0.246865428392764
1017	 0.247209081683975
1018	 0.247532482787508
1019	 0.247881341753389
1020	 0.248218111667753
1021	 0.24854823935236
1022	 0.248825280194366
1023	 0.249116539348642
1024	 0.249464135649045
1025	 0.249882421853679
1026	 0.250208589456913
1027	 0.250536137150228
1028	 0.25080174200106
1029	 0.250976855019298
1030	 0.251330483964262
1031	 0.251666293425442
1032	 0.251978454114008
1033	 0.252293435920837
1034	 0.252513981816617
1035	 0.252738103156904
1036	 0.252962529860746
1037	 0.253196771402109
1038	 0.253431078829708
1039	 0.253624408892364
1040	 0.253912266724353
1041	 0.254344490112571
1042	 0.254612905710149
1043	 0.254883052851637
1044	 0.255168374468321
1045	 0.255332790271664
1046	 0.255698217112526
1047	 0.256097650243136
1048	 0.256460934609547
1049	 0.256874978686263
1050	 0.257149706645641
1051	 0.25738763274504
1052	 0.257621629063881
1053	 0.257855763296912
1054	 0.258032616504213
1055	 0.258231717818398
1056	 0.258531383308137
1057	 0.25889380087381
1058	 0.259168425383986
1059	 0.259508925636586
1060	 0.259878672940236
1061	 0.260107543735298
1062	 0.260403421468765
1063	 0.260678227702414
1064	 0.260799714462653
1065	 0.261042618400157
1066	 0.261402506141547
1067	 0.261783085042893
1068	 0.262116310360096
1069	 0.262538145886906
1070	 0.262832548023329
1071	 0.263027315257285
1072	 0.26317609855235
1073	 0.263393458233129
1074	 0.26364903888313
1075	 0.263889941774239
1076	 0.264212648336028
1077	 0.264552410050659
1078	 0.264871118764689
1079	 0.265251604587225
1080	 0.265547470952931
1081	 0.265817603244144
1082	 0.266131262172445
1083	 0.266441570342648
1084	 0.266771718668293
1085	 0.267085630753781
1086	 0.267409863240121
1087	 0.267693469051535
1088	 0.267957964251454
1089	 0.268155077849892
1090	 0.26838838822918
1091	 0.268724672563242
1092	 0.269073486579045
1093	 0.26942275375439
1094	 0.269683463362518
1095	 0.269846522069344
1096	 0.270068263913649
1097	 0.270327377451948
1098	 0.270619888997974
1099	 0.271029050602049
1100	 0.271355438705203
1101	 0.27166052913517
1102	 0.271954817313502
1103	 0.272211049033949
1104	 0.272510235427104
1105	 0.272862745304197
1106	 0.273169150606941
1107	 0.273447899322596
1108	 0.273717271407874
1109	 0.273955146775325
1110	 0.274174319312767
1111	 0.27445234959035
1112	 0.274732645046285
1113	 0.275007451808547
1114	 0.275298702733555
1115	 0.275560803076308
1116	 0.275799080939484
1117	 0.276055576217132
1118	 0.276257605931906
1119	 0.276521790676777
1120	 0.276829634545377
1121	 0.277165013926254
1122	 0.277478377516265
1123	 0.277753862198963
1124	 0.277918533890947
1125	 0.278109631304067
1126	 0.278351301422019
1127	 0.278577672919022
1128	 0.27885590576937
1129	 0.279178990714215
1130	 0.279470738933998
1131	 0.279762695156908
1132	 0.280028559405675
1133	 0.280290676563679
1134	 0.280526334285686
1135	 0.280703742503441
1136	 0.280931290483224
1137	 0.281174911409428
1138	 0.28141013579926
1139	 0.281648391709322
1140	 0.281929302867624
1141	 0.282158813125099
1142	 0.282348321551581
1143	 0.282562259410251
1144	 0.282741549194758
1145	 0.282902259816709
1146	 0.283011881011986
1147	 0.283229895961831
1148	 0.283485303052656
1149	 0.283705052725823
1150	 0.283990275959572
1151	 0.284213722491644
1152	 0.284357641228373
1153	 0.284540824891508
1154	 0.284750539607283
1155	 0.284955905159764
1156	 0.285149622780347
1157	 0.285339133445856
1158	 0.285593505665976
1159	 0.285848541640168
1160	 0.286114765627891
1161	 0.28642153547318
1162	 0.286712498328525
1163	 0.287003212973674
1164	 0.287272729460746
1165	 0.287536982890798
1166	 0.287811020069516
1167	 0.288058196604251
1168	 0.288349959974808
1169	 0.288689036451596
1170	 0.288989567736055
1171	 0.289298716415377
1172	 0.289584522523163
1173	 0.289835111091717
1174	 0.290103638437014
1175	 0.290371992644044
1176	 0.29063640184432
1177	 0.290912611788442
1178	 0.291203262672921
1179	 0.291509384011404
1180	 0.291794481449558
1181	 0.292064072145284
1182	 0.29231936286374
1183	 0.292578661618723
1184	 0.292818040910002
1185	 0.293071771138976
1186	 0.293341064616303
1187	 0.293594823930944
1188	 0.29384385856966
1189	 0.294092066460158
1190	 0.294337458507718
1191	 0.294571967351097
1192	 0.294789329348304
1193	 0.295023264298932
1194	 0.295263986669583
1195	 0.295499329085798
1196	 0.295726842708538
1197	 0.295934721059455
1198	 0.296185506108578
1199	 0.296450344258355
1200	 0.296688326798807
1201	 0.296958779439239
1202	 0.297189700693896
1203	 0.297354656103674
1204	 0.297564086245537
1205	 0.297795464763762
1206	 0.298020027957325
1207	 0.298252633745587
1208	 0.298480576162389
1209	 0.298706052113898
1210	 0.2989302600759
1211	 0.299160691991091
1212	 0.299375448800481
1213	 0.299575524448934
1214	 0.299781947709092
1215	 0.300028184691118
1216	 0.300205776652754
1217	 0.300387767388474
1218	 0.300547743623435
1219	 0.300765772082585
1220	 0.300984238365408
1221	 0.301208325787682
1222	 0.301521533317424
1223	 0.301720887777418
1224	 0.301816156262051
1225	 0.301995937643412
1226	 0.302192710419216
1227	 0.302358304106321
1228	 0.302537192139826
1229	 0.302723761661568
1230	 0.302875255005353
1231	 0.30304091477331
1232	 0.303242140786948
1233	 0.303436241970068
1234	 0.303604382267294
1235	 0.303798033065931
1236	 0.303986920387628
1237	 0.304193018848335
1238	 0.304389014012289
1239	 0.304591899085889
1240	 0.304758336500009
1241	 0.304897115370256
1242	 0.305070508971056
1243	 0.305224794368869
1244	 0.305404514906506
1245	 0.305658919009974
1246	 0.305828119479599
1247	 0.305931285924109
1248	 0.306082139241387
1249	 0.306208856456077
1250	 0.30636160772051
1251	 0.306564854072103
1252	 0.306748674721433
1253	 0.306936702911709
1254	 0.307105186181233
1255	 0.307264160910747
1256	 0.307421504122454
1257	 0.307562406086691
1258	 0.307680599705487
1259	 0.30780522056552
1260	 0.307907692233236
1261	 0.308060438061014
1262	 0.308233440146639
1263	 0.308399456174048
1264	 0.30862376993402
1265	 0.308770868968725
1266	 0.308871530998624
1267	 0.308978557198608
1268	 0.309028731039559
1269	 0.309136022273214
1270	 0.309287220086847
1271	 0.309403909109243
1272	 0.309520383375014
1273	 0.309646232713794
1274	 0.309751669485956
1275	 0.309867338265044
1276	 0.310041470285407
1277	 0.310159518796969
1278	 0.310250058073381
1279	 0.310303443841735
1280	 0.310377995840576
1281	 0.310409533350918
1282	 0.31050492488885
1283	 0.310647957340444
1284	 0.310755675162474
1285	 0.310893827837867
1286	 0.310975398769801
1287	 0.311009248260199
1288	 0.311066088504202
1289	 0.311071975182141
1290	 0.311151526297299
1291	 0.311312957292897
1292	 0.311400392027259
1293	 0.31149702920238
1294	 0.311572087479218
1295	 0.311578593102203
1296	 0.311610774996575
1297	 0.311647890077041
1298	 0.31169736134288
1299	 0.311756300924016
1300	 0.311812946101375
1301	 0.311855370557943
1302	 0.311915587973761
1303	 0.311937864750697
1304	 0.31190785042294
1305	 0.311936309731807
1306	 0.311981764919771
1307	 0.31201855623837
1308	 0.312092838362047
1309	 0.312119191268312
1310	 0.31211653077807
1311	 0.312110962013072
1312	 0.312069749658011
1313	 0.312065062261
1314	 0.312077078526603
1315	 0.312075801890953
1316	 0.312094229090109
1317	 0.312091794027002
1318	 0.312056198761353
1319	 0.312041535201509
1320	 0.312051223229188
1321	 0.312030736138674
1322	 0.312000820644236
1323	 0.311965864716039
1324	 0.311899545047205
1325	 0.31185281566021
1326	 0.311794623813277
1327	 0.31173790900743
1328	 0.311674222254463
1329	 0.311597921623486
1330	 0.311525187448827
1331	 0.311447431958861
1332	 0.311388762208278
1333	 0.311335318454147
1334	 0.311285800850119
1335	 0.311263521959007
1336	 0.311206495039421
1337	 0.311136579833345
1338	 0.311057191591011
1339	 0.310962326641289
1340	 0.310866466199282
1341	 0.310731173801921
1342	 0.310655540541319
1343	 0.310650744253663
1344	 0.310563038873407
1345	 0.310463200259635
1346	 0.31036456009726
1347	 0.310206169061439
1348	 0.310055252504365
1349	 0.309914631757652
1350	 0.309792944874522
1351	 0.309646092197206
1352	 0.30949312258659
1353	 0.309353586248789
1354	 0.309202784995218
1355	 0.309046269601904
1356	 0.308869451437655
1357	 0.308704691372837
1358	 0.308545621718714
1359	 0.308382155938702
1360	 0.308209405386578
1361	 0.308058043407573
1362	 0.307919368747483
1363	 0.307771476814003
1364	 0.307641594749112
1365	 0.307484640929252
1366	 0.307322733483282
1367	 0.307137414138646
1368	 0.306960900002661
1369	 0.306724258784827
1370	 0.306476985101429
1371	 0.306154226056023
1372	 0.305776941103532
1373	 0.305349442209145
1374	 0.30487874370464
1375	 0.304338647806457
1376	 0.303738551592986
1377	 0.303092464044173
1378	 0.302349529209328
1379	 0.301564342501906
1380	 0.300775021585619
1381	 0.299916817056452
1382	 0.299022536891969
1383	 0.298144510693684
1384	 0.29728901340264
1385	 0.296419401204685
1386	 0.295575082862494
1387	 0.294761102175583
1388	 0.293972635829542
1389	 0.293168478198698
1390	 0.292430317739369
1391	 0.291776638889163
1392	 0.29106457403792
1393	 0.290357783775238
1394	 0.289635709864181
1395	 0.288908510756987
1396	 0.288132709285011
1397	 0.287382439252886
1398	 0.286522982079004
1399	 0.285576493149729
1400	 0.284612345348951
1401	 0.283607690176857
1402	 0.282533876935544
1403	 0.281387898007142
1404	 0.280239328631292
1405	 0.278997613825829
1406	 0.277796740019858
1407	 0.276568194201438
1408	 0.275419551633322
1409	 0.27428494053405
1410	 0.273234905231942
1411	 0.272318291276672
1412	 0.271536982888539
1413	 0.270970083610716
1414	 0.270566674563945
1415	 0.270365021732118
1416	 0.270334024954202
1417	 0.270360178222153
1418	 0.270543878637734
1419	 0.27072022172524
1420	 0.270990963234553
1421	 0.271223307997972
1422	 0.27150476051833
1423	 0.271730606842611
1424	 0.271927979358597
1425	 0.272141166596016
1426	 0.272342810548471
1427	 0.272543351373931
1428	 0.272736324942669
1429	 0.272958506763568
1430	 0.273170357043691
1431	 0.273425098898134
1432	 0.273734702463914
1433	 0.274019451742717
1434	 0.274324522961414
1435	 0.274601299002515
1436	 0.274842094917186
1437	 0.275125970177233
1438	 0.275430643545295
1439	 0.275717213892896
1440	 0.276020832048455
1441	 0.276312729235736
1442	 0.276572364215434
1443	 0.276850108329597
1444	 0.277140796243175
1445	 0.277447063442509
1446	 0.277715816237469
1447	 0.277979638896711
1448	 0.278226607732063
1449	 0.278433782057326
1450	 0.278647194561611
1451	 0.278841873915622
1452	 0.279008951776982
1453	 0.279195186973768
1454	 0.27938223651006
1455	 0.279542941795804
1456	 0.279692793196968
1457	 0.279844041825277
1458	 0.279959765961561
1459	 0.280023756301673
1460	 0.280147715554383
1461	 0.280277019859202
1462	 0.280412092107795
1463	 0.28058540252518
1464	 0.280730506901238
1465	 0.280840718540381
1466	 0.281003463077636
1467	 0.281186364533587
1468	 0.281379081503835
1469	 0.281577916593296
1470	 0.281826368455547
1471	 0.282098513891117
1472	 0.282389855600832
1473	 0.282747224459913
1474	 0.283081806299814
1475	 0.283403799307552
1476	 0.283753223682437
1477	 0.284107508387605
1478	 0.284486485066853
1479	 0.28492543489493
1480	 0.285307021938823
1481	 0.285668470520012
1482	 0.286043880583183
1483	 0.286388594265239
1484	 0.286743162293195
1485	 0.287144493306645
1486	 0.287502617335944
1487	 0.287826360522163
1488	 0.288148235427705
1489	 0.288441753272892
1490	 0.288748131141696
1491	 0.28905611834065
1492	 0.289364512968855
1493	 0.28967538091308
1494	 0.289962782903142
1495	 0.290219792798236
1496	 0.290510962137177
1497	 0.290805401613889
1498	 0.291074109431158
1499	 0.291346410971173
1500	 0.291610307988484
1501	 0.291872326526046
1502	 0.292145771810987
1503	 0.292411340282137
1504	 0.292665644057354
1505	 0.292926764239963
1506	 0.293169114539666
1507	 0.293426645674589
1508	 0.293701385570381
1509	 0.293955417868046
1510	 0.294213236273778
1511	 0.294433618319999
1512	 0.294619947486984
1513	 0.294836126879417
1514	 0.295039691910051
1515	 0.295255618170019
1516	 0.295506749610178
1517	 0.295709385319395
1518	 0.29588002611375
1519	 0.296065171729918
1520	 0.296234985757002
1521	 0.296421309909604
1522	 0.29663601794141
1523	 0.29681246495712
1524	 0.296962578687774
1525	 0.297130193678389
1526	 0.297275722650789
1527	 0.297443341316473
1528	 0.297651060011362
1529	 0.29783028460084
1530	 0.297994850830007
1531	 0.298164411918561
1532	 0.298330684340375
1533	 0.298484228021267
1534	 0.298642022250187
1535	 0.298787183670853
1536	 0.298907781571654
1537	 0.299041560349938
1538	 0.299186688728616
1539	 0.299305324101511
1540	 0.299399304095
1541	 0.29951654280703
1542	 0.299632362034349
1543	 0.299749384341261
1544	 0.299878814943486
1545	 0.30001820724404
1546	 0.300164227052623
1547	 0.300289818369193
1548	 0.300433251584108
1549	 0.300550012660701
1550	 0.30061898374359
1551	 0.300716570798171
1552	 0.30083036601996
1553	 0.300923836252902
1554	 0.300996679842293
1555	 0.301098056572318
1556	 0.301216371078772
1557	 0.301315126320083
1558	 0.301416814900197
1559	 0.301532654271989
1560	 0.301649077472451
1561	 0.301743592876657
1562	 0.301847163756335
1563	 0.301947519911762
1564	 0.302020481497182
1565	 0.302092399901334
1566	 0.302165433252064
1567	 0.302245133343311
1568	 0.302308414826386
1569	 0.302389724469826
1570	 0.302518672530315
1571	 0.302608242404329
1572	 0.302660368297865
1573	 0.302734771189661
1574	 0.302791701295143
1575	 0.302866616350906
1576	 0.302982893187311
1577	 0.303113204139701
1578	 0.303215991169931
1579	 0.303295186813584
1580	 0.303309039241418
1581	 0.30333636976376
1582	 0.303398058582831
1583	 0.303442705217442
1584	 0.303511356291681
1585	 0.303580503408738
1586	 0.30363656016458
1587	 0.303696721563566
1588	 0.303804104304428
1589	 0.303886982468196
1590	 0.303882068941979
1591	 0.303911584235819
1592	 0.303946707786596
1593	 0.303979632897291
1594	 0.304081903312094
1595	 0.304165345283932
1596	 0.30422080572191
1597	 0.304268559099223
1598	 0.30430275773958
1599	 0.304369033867259
1600	 0.304444715471766
1601	 0.304503338337463
1602	 0.304555740433222
1603	 0.304599624646989
1604	 0.304604200114028
1605	 0.304634257712577
1606	 0.304716688891618
1607	 0.304786121562232
1608	 0.304848162170652
1609	 0.304895831602034
1610	 0.304935163631791
1611	 0.3049585104251
1612	 0.305007159163741
1613	 0.305079443862129
1614	 0.305095673206819
1615	 0.305124961024906
1616	 0.305192720285273
1617	 0.305258382868878
1618	 0.305326312817256
1619	 0.305435299338374
1620	 0.30548228260837
1621	 0.305486933764945
1622	 0.305526194834782
1623	 0.305562424787762
1624	 0.305595343182459
1625	 0.305638505319291
1626	 0.305671792810251
1627	 0.305684356509015
1628	 0.305732244947867
1629	 0.305796914525006
1630	 0.305861735496083
1631	 0.305944581100347
1632	 0.306022624254026
1633	 0.306049606216056
1634	 0.306067942513661
1635	 0.306107595740071
1636	 0.306128247762046
1637	 0.306194997279298
1638	 0.306286269451125
1639	 0.306330679546294
1640	 0.30630966368745
1641	 0.306322925849364
1642	 0.306299383419512
1643	 0.306309082090532
1644	 0.306397934330393
1645	 0.306443938946654
1646	 0.306465935435118
1647	 0.306496235960939
1648	 0.306500789966692
1649	 0.306522221275082
1650	 0.306577754673444
1651	 0.30660913847819
1652	 0.306610819676024
1653	 0.306643548949001
1654	 0.306711736812147
1655	 0.306733120187768
1656	 0.30676068390377
1657	 0.306762459145903
1658	 0.306672806563769
1659	 0.30664310675632
1660	 0.306657912085578
1661	 0.306650613407797
1662	 0.306651911627762
1663	 0.306659392198319
1664	 0.306662184596222
1665	 0.306658064879477
1666	 0.306659375841463
1667	 0.306665545397397
1668	 0.306673285836079
1669	 0.306657898296894
1670	 0.306608987287794
1671	 0.306615856616061
1672	 0.306656427271792
1673	 0.306659935414842
1674	 0.306697945699513
1675	 0.306707918751351
1676	 0.30664924042825
1677	 0.306621179421246
1678	 0.306606166387323
1679	 0.306603472250572
1680	 0.306632386383956
1681	 0.306618563393759
1682	 0.306598781997308
1683	 0.306566548364768
1684	 0.306458528779238
1685	 0.306425670007461
1686	 0.306464624908053
1687	 0.30644819066175
1688	 0.306426050917573
1689	 0.306416630570055
1690	 0.306380887022228
1691	 0.306354129440381
1692	 0.306354661088874
1693	 0.30634700870771
1694	 0.306332245347202
1695	 0.306297319992641
1696	 0.306255524867739
1697	 0.306233198916805
1698	 0.306190491387384
1699	 0.306166778493578
1700	 0.306182259791212
1701	 0.306170031115431
1702	 0.306143008783823
1703	 0.306106819774547
1704	 0.30605456314803
1705	 0.306031295825311
1706	 0.306020927154983
1707	 0.305988698582035
1708	 0.30596736746668
1709	 0.3059401247044
1710	 0.305881381380792
1711	 0.305839272457705
1712	 0.305820176006092
1713	 0.305779172893286
1714	 0.305732830374942
1715	 0.305664338646772
1716	 0.305581744924487
1717	 0.305495980604161
1718	 0.305390186564201
1719	 0.305278400463154
1720	 0.305179502783981
1721	 0.305139702601786
1722	 0.305070816724909
1723	 0.304971502201342
1724	 0.304885643530387
1725	 0.304741640914624
1726	 0.304607540555503
1727	 0.304563218482199
1728	 0.304521859747974
1729	 0.304430598466736
1730	 0.304299612254216
1731	 0.304118190710236
1732	 0.303947391556889
1733	 0.303870193115925
1734	 0.303786759011555
1735	 0.303671434366743
1736	 0.303567795935567
1737	 0.303438404232773
1738	 0.303307778622659
1739	 0.303196193059462
1740	 0.303081161219286
1741	 0.30292977542985
1742	 0.302809093771181
1743	 0.302739460488839
1744	 0.302629215170048
1745	 0.302507502949144
1746	 0.302377196014986
1747	 0.302222896171498
1748	 0.302061977379978
1749	 0.30189092128249
1750	 0.301742459567011
1751	 0.301593996253152
1752	 0.301439200785291
1753	 0.301279237965971
1754	 0.301145737161807
1755	 0.301032292898828
1756	 0.300886842609187
1757	 0.300756301497508
1758	 0.300613750518908
1759	 0.300432088965417
1760	 0.30031008512617
1761	 0.300140946813082
1762	 0.299998867548565
1763	 0.299853251386042
1764	 0.299667447307944
1765	 0.299567627044042
1766	 0.299465884964461
1767	 0.299298058119396
1768	 0.299157400111645
1769	 0.299017216257585
1770	 0.298858934034163
1771	 0.298735012262257
1772	 0.298681614898475
1773	 0.298632701792049
1774	 0.298519954532623
1775	 0.298363021302043
1776	 0.29818708233025
1777	 0.298079873841356
1778	 0.297978070257668
1779	 0.29787960733601
1780	 0.29774356778373
1781	 0.29762334735541
1782	 0.297547111950239
1783	 0.297470931044894
1784	 0.297421091935328
1785	 0.297332142411874
1786	 0.29719457222907
1787	 0.297122142499734
1788	 0.297049271880435
1789	 0.297009354701898
1790	 0.297042097580764
1791	 0.296991898267773
1792	 0.296914997928705
1793	 0.296850377655225
1794	 0.296797430417715
1795	 0.296760326613231
1796	 0.296729999054297
1797	 0.296672644786899
1798	 0.296593924458235
1799	 0.296509937255465
1800	 0.29640689384574
1801	 0.296339484507814
1802	 0.296331133454033
1803	 0.296349391796492
1804	 0.296323193561957
1805	 0.296246765211198
1806	 0.296188064576515
1807	 0.296194943273962
1808	 0.296210125674408
1809	 0.296225320624228
1810	 0.296235355975795
1811	 0.296124893457641
1812	 0.295994994836762
1813	 0.295939467522568
1814	 0.295878046309923
1815	 0.295832597838425
1816	 0.29580279301022
1817	 0.295769316847403
1818	 0.295730663267748
1819	 0.295754669296398
1820	 0.295769688425471
1821	 0.295717217225756
1822	 0.295652685090435
1823	 0.295602247051922
1824	 0.295584972230211
1825	 0.295579132503054
1826	 0.295579819590272
1827	 0.295536151370533
1828	 0.295476289803218
1829	 0.295427174825855
1830	 0.295333171224942
1831	 0.296652852635281
1832	 0.296739406349414
1833	 0.296788087356595
1834	 0.296762792545267
1835	 0.296789342978257
1836	 0.296746710063844
1837	 0.296546382935761
1838	 0.296425660855335
1839	 0.296341901322605
1840	 0.296226310821307
1841	 0.296115227081815
1842	 0.296071051947766
1843	 0.296051156533638
1844	 0.296144341694045
1845	 0.296074265211348
1846	 0.295942741625882
1847	 0.295840479131723
1848	 0.295673227526449
1849	 0.295527383446792
1850	 0.295403120405855
1851	 0.295235030003371
1852	 0.295006664655648
1853	 0.29472165179253
1854	 0.294427752827436
1855	 0.294140564741381
1856	 0.293765166854134
1857	 0.29330396808552
1858	 0.292882740322479
1859	 0.2924395969373
1860	 0.292019107937721
1861	 0.29153373547932
1862	 0.290929073920816
1863	 0.290191137150214
1864	 0.289360759789796
1865	 0.288516239182442
1866	 0.287639901113249
1867	 0.286640527869796
1868	 0.285527999699966
1869	 0.284454318591277
1870	 0.283313326792991
1871	 0.282094219315069
1872	 0.280905434722899
1873	 0.279567233721844
1874	 0.278016086193791
1875	 0.276424110338554
1876	 0.274824747787903
1877	 0.273087090696531
1878	 0.271281115337504
1879	 0.269405726932465
1880	 0.267486495561021
1881	 0.265469525016253
1882	 0.263462261557188
1883	 0.2614229156299
1884	 0.259297850586257
1885	 0.256967064435256
1886	 0.254431270844567
1887	 0.251763893181007
1888	 0.248968183388316
1889	 0.246162479006337
1890	 0.243314698031865
1891	 0.240408836543152
1892	 0.237346022987549
1893	 0.234230947078671
1894	 0.231020589765188
1895	 0.227799205559252
1896	 0.224714247357906
1897	 0.221690878872154
1898	 0.218758354585092
1899	 0.215917916736759
1900	 0.213164087213058
1901	 0.210455024789874
1902	 0.207949351208965
1903	 0.205629979911418
1904	 0.20345416184829
1905	 0.201559084955332
1906	 0.199797621039368
1907	 0.198177293182962
1908	 0.196793837715693
1909	 0.195573209520933
1910	 0.194506555032317
1911	 0.193598300786738
1912	 0.19287616674163
1913	 0.192229963903186
1914	 0.191689346864394
1915	 0.191362941830882
1916	 0.191119076828543
1917	 0.19099894244435
1918	 0.191072152302958
1919	 0.19117280414585
1920	 0.191315472537783
1921	 0.191520234832326
1922	 0.191766768448932
1923	 0.192067897038492
1924	 0.19242348045413
1925	 0.192819057041147
1926	 0.193276830924449
1927	 0.193695804474082
1928	 0.194094509282617
1929	 0.194536035198534
1930	 0.194951102749566
1931	 0.195399139739307
1932	 0.195887748416999
1933	 0.196362786083895
1934	 0.196836081969522
1935	 0.197317729998376
1936	 0.197805465883564
1937	 0.198233969563139
1938	 0.198713904093773
1939	 0.199255738858154
1940	 0.199740342112348
1941	 0.200247297103109
1942	 0.200721923027365
1943	 0.201169540808057
1944	 0.201630668518144
1945	 0.202081310985156
1946	 0.20252339514057
1947	 0.203018123088105
1948	 0.203504081836412
1949	 0.204058746376068
1950	 0.204644228388826
1951	 0.205097237288251
1952	 0.205572767958598
1953	 0.206013393491875
1954	 0.206466406506928
1955	 0.207012761096496
1956	 0.207509611041297
1957	 0.208032601459464
1958	 0.208561477145592
1959	 0.209086441106801
1960	 0.209635657869124
1961	 0.210221966671685
1962	 0.210777767217293
1963	 0.211359631215795
1964	 0.211897901278271
1965	 0.212540108365339
1966	 0.213168786448512
1967	 0.213678208004877
1968	 0.214286242790505
1969	 0.214897764357111
1970	 0.21546224879309
1971	 0.216077752710784
1972	 0.21679978230602
1973	 0.217449354108847
1974	 0.218063469298829
1975	 0.218675840959253
1976	 0.219323588999647
1977	 0.21993318341885
1978	 0.22057889701562
1979	 0.221220593142174
1980	 0.221744186140207
1981	 0.22235570666918
1982	 0.223003686532739
1983	 0.223664598810526
1984	 0.22429985722433
1985	 0.224999441364465
1986	 0.225647997555077
1987	 0.226208982997425
1988	 0.226855892096848
1989	 0.227536727209517
1990	 0.228274668240294
1991	 0.22900107886564
1992	 0.2296608973123
1993	 0.230264562822448
1994	 0.230846676628671
1995	 0.231471784874317
1996	 0.232074761136796
1997	 0.232718374178934
1998	 0.233429147984317
1999	 0.234098362333365
2000	 0.234769220771051
2001	 0.235410307990236
2002	 0.236010258148332
2003	 0.236686132623407
2004	 0.237328155764959
2005	 0.237958402254682
2006	 0.238630531184227
2007	 0.239199454439158
2008	 0.23981513331769
2009	 0.24042749162633
2010	 0.241053004455064
2011	 0.2417446590078
2012	 0.242361702276134
2013	 0.242917615016878
2014	 0.243474583601458
2015	 0.24403015887579
2016	 0.244482507781644
2017	 0.244984564309814
2018	 0.245574570167211
2019	 0.246089125835755
2020	 0.246602413630643
2021	 0.247102518384224
2022	 0.247572016791751
2023	 0.24802713081475
2024	 0.248455015539484
2025	 0.248941119814829
2026	 0.249437359731312
2027	 0.249916312263707
2028	 0.250431740713705
2029	 0.250924950597573
2030	 0.251359215071867
2031	 0.251914082323757
2032	 0.252396050665299
2033	 0.252824674513266
2034	 0.253205822354457
2035	 0.253495468825183
2036	 0.253866267487797
2037	 0.254243347090014
2038	 0.254639060881272
2039	 0.255113251174458
2040	 0.255511323630075
2041	 0.255882158342434
2042	 0.256244356740718
2043	 0.25656750249212
2044	 0.256893901257091
2045	 0.257228958649529
2046	 0.257526519354973
2047	 0.257861436675559
2048	 0.258150977238036
2049	 0.258442703014396
2050	 0.258824130778648
2051	 0.259144648434156
2052	 0.259467719940431
2053	 0.259755260765861
2054	 0.259970980027709
2055	 0.260257366206468
2056	 0.260545077844026
2057	 0.260854335972427
2058	 0.261244619787543
2059	 0.261595265474582
2060	 0.261770632065945
2061	 0.262052243834709
2062	 0.262301501119233
2063	 0.262494009101933
2064	 0.262858780688912
2065	 0.263181774418702
2066	 0.263472970240542
2067	 0.263714566671526
2068	 0.264022303606964
2069	 0.264350369523527
2070	 0.264668190689382
2071	 0.265021959092701
2072	 0.265362318311572
2073	 0.26568438139079
2074	 0.265986647749387
2075	 0.266286302893124
2076	 0.266599299526135
2077	 0.266898776574453
2078	 0.26712251697106
2079	 0.267294217476929
2080	 0.267515818302802
2081	 0.2677188520629
2082	 0.267850343486297
2083	 0.26807053942668
2084	 0.268403893601843
2085	 0.26861064101534
2086	 0.26873606627851
2087	 0.268978993083518
2088	 0.269225317973306
2089	 0.269438841007809
2090	 0.269753638542833
2091	 0.270004177777198
2092	 0.270113882161715
2093	 0.270335797919819
2094	 0.270613612145912
2095	 0.270899625253119
2096	 0.271278660016615
2097	 0.271551861910554
2098	 0.271794176554789
2099	 0.272016580267176
2100	 0.272197312745857
2101	 0.272289006899481
2102	 0.272435851637815
2103	 0.272564153315541
2104	 0.272714133422941
2105	 0.272879216235031
2106	 0.273028208804305
2107	 0.27316843247279
2108	 0.273348912921785
2109	 0.27349795077243
2110	 0.273770336155977
2111	 0.274036688224662
2112	 0.274244815100434
2113	 0.274430103377442
2114	 0.274574948451574
2115	 0.274780133318461
2116	 0.275022215253971
2117	 0.275197377225142
2118	 0.275380675134983
2119	 0.275558833507108
2120	 0.275618214425442
2121	 0.275828466867517
2122	 0.276211897711391
2123	 0.276438614086573
2124	 0.276691483478195
2125	 0.276855202850803
2126	 0.276903864342007
2127	 0.27688499480251
2128	 0.276951134764841
2129	 0.277075009088128
2130	 0.277212935113848
2131	 0.277339985027411
2132	 0.277332636897644
2133	 0.27719420027196
2134	 0.277153881575689
2135	 0.277058311982497
2136	 0.277003980161125
2137	 0.277067808499077
2138	 0.277007307864567
2139	 0.276896106289316
2140	 0.276728960184527
2141	 0.276437037547145
2142	 0.276233811325509
2143	 0.276090497847983
2144	 0.275835193633969
2145	 0.275543958532836
2146	 0.275273688659213
2147	 0.2749402675977
2148	 0.274577879467547
2149	 0.274265201105918
2150	 0.273959742958287
2151	 0.273596619533781
2152	 0.273206690423674
2153	 0.272794816659334
2154	 0.272370671834579
2155	 0.271956922661037
2156	 0.271502322104517
2157	 0.271069166630126
2158	 0.27064397965254
2159	 0.27026553677308
2160	 0.269901494147733
2161	 0.269543175808537
2162	 0.269233351014341
2163	 0.268899880308129
2164	 0.268524122992318
2165	 0.268186746120049
2166	 0.267889061838024
2167	 0.267602567962651
2168	 0.267292467576341
2169	 0.267059311402053
2170	 0.266886914708349
2171	 0.266746390075531
2172	 0.266664663067817
2173	 0.266625556682278
2174	 0.266420335050232
2175	 0.266134468929322
2176	 0.265811943216364
2177	 0.265330038032968
2178	 0.26497312084748
2179	 0.26464967462819
2180	 0.264317884809048
2181	 0.264032323027308
2182	 0.263710749372145
2183	 0.263420111045115
2184	 0.263027365089267
2185	 0.262585413027698
2186	 0.262084984147019
2187	 0.261452030416691
2188	 0.26087597667499
2189	 0.260288302750895
2190	 0.259729501116949
2191	 0.259095321964804
2192	 0.258489517124639
2193	 0.257886808766786
2194	 0.257199940986493
2195	 0.256569601762639
2196	 0.255850425892009
2197	 0.255068624404046
2198	 0.254164043754999
2199	 0.253374328800209
2200	 0.252552091355537
2201	 0.251782153547163
2202	 0.251069953639851
2203	 0.250374485798768
2204	 0.249592088242873
2205	 0.249073192753717
2206	 0.248591910864465
2207	 0.248391948022403
2208	 0.248399038045889
2209	 0.248632771033342
2210	 0.249159978043972
2211	 0.24974865199419
2212	 0.250624776371744
2213	 0.251473412237658
2214	 0.252452919005218
2215	 0.253387681049534
2216	 0.25445680449523
2217	 0.255282589701068
2218	 0.256095201840369
2219	 0.256695268455508
2220	 0.257192008311549
2221	 0.257741708865856
2222	 0.258285546316868
2223	 0.258898737833111
2224	 0.259324996286264
2225	 0.259721054950567
2226	 0.259953333072433
2227	 0.259965184029179
2228	 0.260054717648022
2229	 0.26010850669173
2230	 0.260136708187419
2231	 0.260132926959242
2232	 0.260127914956823
2233	 0.260091846273741
2234	 0.260014453141929
2235	 0.259875336111128
2236	 0.259825852074205
2237	 0.2597587248364
2238	 0.259742790688983
2239	 0.259859868989498
2240	 0.259886125125153
2241	 0.25988553156514
2242	 0.25989460067333
2243	 0.25985245616117
2244	 0.25984271140243
2245	 0.259914732213811
2246	 0.259781462708935
2247	 0.259878586905123
2248	 0.26007383975822
2249	 0.260015329630581
2250	 0.260094948203427
2251	 0.25995864104898
2252	 0.25969902055706
2253	 0.259685381312777
2254	 0.259563004870217
2255	 0.259486163418328
2256	 0.259507571039604
2257	 0.259432000698739
2258	 0.2592604633959
2259	 0.259256441922618
2260	 0.259302011337048
2261	 0.259322522798094
2262	 0.259501450091376
2263	 0.259485840351104
2264	 0.259351733713325
2265	 0.259200077508977
2266	 0.258921273380179
2267	 0.258737204892255
2268	 0.258587614472743
2269	 0.258433917114671
2270	 0.258324863243819
2271	 0.258157986209977
2272	 0.257935654437732
2273	 0.257711524042703
2274	 0.257486407181134
2275	 0.257226270656786
2276	 0.256933141459856
2277	 0.256655357615482
2278	 0.256335900909276
2279	 0.256063125830665
2280	 0.255833336523445
2281	 0.255615701875983
2282	 0.255416798057873
2283	 0.255214218672649
2284	 0.255121882297787
2285	 0.254743349213314
2286	 0.254348412316662
2287	 0.253923474709048
2288	 0.253319210448027
2289	 0.252875037754585
2290	 0.252606806498115
2291	 0.25238240943032
2292	 0.25217872091944
2293	 0.252058192244832
2294	 0.251695483727934
2295	 0.251310070951897
2296	 0.251243183153333
2297	 0.251055793515161
2298	 0.250917313180982
2299	 0.250838780751402
2300	 0.250407138688446
2301	 0.250059771506666
2302	 0.249835686328019
2303	 0.2496719580131
2304	 0.249454522560202
2305	 0.249433253576524
2306	 0.24909779165902
2307	 0.248517685066512
2308	 0.248097699483611
2309	 0.247594178383384
2310	 0.247169772256814
2311	 0.246830818705135
2312	 0.246494782764632
2313	 0.246121694018764
2314	 0.245855068603426
2315	 0.245595293727881
2316	 0.245516588043381
2317	 0.245669955094464
2318	 0.245662998883253
2319	 0.245811916682998
2320	 0.245776862203095
2321	 0.245453910530894
2322	 0.245309709992031
2323	 0.245158791665462
2324	 0.245097863213738
2325	 0.245236579678724
2326	 0.245236370565338
2327	 0.245202449484441
2328	 0.24512749233007
2329	 0.244976429488453
2330	 0.24483014607239
2331	 0.244691535191235
2332	 0.244524166907408
2333	 0.244285099153394
2334	 0.244053458264455
2335	 0.243886336357666
2336	 0.243579635524376
2337	 0.243153076037038
2338	 0.242804052747108
2339	 0.242404129547998
2340	 0.241991149572985
2341	 0.241633890624422
2342	 0.241201569970382
2343	 0.240824264607412
2344	 0.240694921569454
2345	 0.240547305244077
2346	 0.240349389230325
2347	 0.240060840886874
2348	 0.23953293123203
2349	 0.23909216531804
2350	 0.238913567377842
2351	 0.238627340457641
2352	 0.238178595724136
2353	 0.237785087468409
2354	 0.237284237682585
2355	 0.236862323751625
2356	 0.236498240111175
2357	 0.236086715722766
2358	 0.235814015567912
2359	 0.235669589182224
2360	 0.235644916839749
2361	 0.235518550687546
2362	 0.235210637694352
2363	 0.234829893539096
2364	 0.234402810640875
2365	 0.234064180071416
2366	 0.233853319014317
2367	 0.233429739793166
2368	 0.232702434369407
2369	 0.232041410112576
2370	 0.231661203857023
2371	 0.231248818972765
2372	 0.230874879356565
2373	 0.230473087102654
2374	 0.229666705471112
2375	 0.229074817000191
2376	 0.228708367085652
2377	 0.228275487287985
2378	 0.228005299266983
2379	 0.227554786514445
2380	 0.226954250569502
2381	 0.226689772136444
2382	 0.226335282070471
2383	 0.225751400629446
2384	 0.225128630120216
2385	 0.224272722225696
2386	 0.223467053806869
2387	 0.222657314365895
2388	 0.222287710461618
2389	 0.222411787831016
2390	 0.222062036682768
2391	 0.22193340102479
2392	 0.222081931976253
2393	 0.221766881417972
2394	 0.221858986236819
2395	 0.221977895693786
2396	 0.221286555613255
2397	 0.220690173202227
2398	 0.219904094788799
2399	 0.218954289383612
2400	 0.218727715730627
2401	 0.21826531265369
2402	 0.21779111440886
2403	 0.217983776997864
2404	 0.217827519762057
2405	 0.217462891261049
2406	 0.217333238343009
2407	 0.217099535800734
2408	 0.216757299755024
2409	 0.216569172277765
2410	 0.216242783129116
2411	 0.215414892793214
2412	 0.214635285392783
2413	 0.213702100017333
2414	 0.213204807567716
2415	 0.213153505182769
2416	 0.212577032825711
2417	 0.212466733457463
2418	 0.212261497448309
2419	 0.211480447870087
2420	 0.210866861257039
2421	 0.210429108839938
2422	 0.210041117198658
2423	 0.209893157568328
2424	 0.209476280659901
2425	 0.208742256156736
2426	 0.208307262747512
2427	 0.207918839692176
2428	 0.207452917129048
2429	 0.207151561436499
2430	 0.206457632657153
2431	 0.205517358918535
2432	 0.20472315675499
2433	 0.203794256767943
2434	 0.203204647278033
2435	 0.202736333356467
2436	 0.202083264635408
2437	 0.201470615634496
2438	 0.200756231777281
2439	 0.200564542271475
2440	 0.200615297526348
2441	 0.200672178202474
2442	 0.200663585159263
2443	 0.200077523069601
2444	 0.199183033629865
2445	 0.198093272471837
2446	 0.197416579284464
2447	 0.19736488684606
2448	 0.196850020411764
2449	 0.196589687028702
2450	 0.195977940022724
2451	 0.194646731170767
2452	 0.193941147374995
2453	 0.193718599481549
2454	 0.194606973659976
2455	 0.19540126810104
2456	 0.195470888762793
2457	 0.195312416835854
2458	 0.194149204842976
2459	 0.193295353871379
2460	 0.192862306645003
2461	 0.192122526057391
2462	 0.191276831248201
2463	 0.190438724327545
2464	 0.189637987211619
2465	 0.18922814041387
2466	 0.189868809849106
2467	 0.189753379267503
2468	 0.189122079266212
2469	 0.188920761466106
2470	 0.187719057561176
2471	 0.186588309307398
2472	 0.186391177480096
2473	 0.18630216745663
2474	 0.185846921818195
2475	 0.185986795487746
2476	 0.186010082996569
2477	 0.18551660631339
2478	 0.186099193395498
2479	 0.184201917382648
2480	 0.183098881994925
2481	 0.182005390635907
2482	 0.180232647595002
2483	 0.181014980095486
2484	 0.181677224357391
2485	 0.18063920992785
2486	 0.181254269157702
2487	 0.180857855491812
2488	 0.179833682877608
2489	 0.180056707707729
2490	 0.179620550552157
2491	 0.179295831368644
2492	 0.179978507833093
2493	 0.181168287901599
2494	 0.182032239307735
2495	 0.183167252820357
2496	 0.182468993191185
2497	 0.180795333720576
2498	 0.180885027232252
2499	 0.178969829759882
2500	 0.177580078137695
