Wavelength	signature0002.asd
350	 9.51630205175488E-02
351	 9.05359516320678E-02
352	 8.16865603449379E-02
353	 8.11506723572388E-02
354	 9.59440517562862E-02
355	 9.18014333676129E-02
356	 0.091271417297223
357	 9.54291786471971E-02
358	 8.91506030671542E-02
359	 8.57854160467585E-02
360	 8.71537344902776E-02
361	 8.91719718428735E-02
362	 8.27890228948038E-02
363	 8.33810702411768E-02
364	 8.49496770189086E-02
365	 8.34881328671631E-02
366	 9.18838527117879E-02
367	 9.20377483682636E-02
368	 8.82407884021659E-02
369	 8.94038344969866E-02
370	 8.87258084047436E-02
371	 8.82167620361141E-02
372	 8.90083575542917E-02
373	 9.08560247161309E-02
374	 8.83529747608128E-02
375	 8.83836012895551E-02
376	 9.15356660513484E-02
377	 0.090186276165663
378	 8.50705597826426E-02
379	 8.52571018369572E-02
380	 9.27389214283448E-02
381	 9.20204636925104E-02
382	 8.93070157039081E-02
383	 8.73342302190969E-02
384	 8.76691631390741E-02
385	 9.14250993998063E-02
386	 9.14425060049291E-02
387	 8.85471693189371E-02
388	 8.80963471409066E-02
389	 9.09247472920682E-02
390	 9.17140308409139E-02
391	 8.98501279109924E-02
392	 9.01572789102642E-02
393	 8.86368363691617E-02
394	 8.85218268292504E-02
395	 9.10964620998711E-02
396	 9.09438471276742E-02
397	 9.14133263933539E-02
398	 9.12989968944071E-02
399	 8.94669265555457E-02
400	 0.090718814808692
401	 9.12966834718752E-02
402	 9.14873738803494E-02
403	 9.36278627685883E-02
404	 9.28891231335594E-02
405	 9.16217849672161E-02
406	 9.17279129514132E-02
407	 9.34859803673705E-02
408	 9.36229871762454E-02
409	 9.27416089503584E-02
410	 9.21686075888032E-02
411	 9.27449111815037E-02
412	 9.31149400616558E-02
413	 9.32597116782227E-02
414	 0.093643249066151
415	 9.43198243732605E-02
416	 0.094200093074149
417	 9.35463776594973E-02
418	 9.36791053165272E-02
419	 9.40606860657053E-02
420	 9.41796500812989E-02
421	 9.40986624864427E-02
422	 0.094923373583977
423	 9.47567500359287E-02
424	 9.45180280423209E-02
425	 9.52358853444372E-02
426	 9.52865809016957E-02
427	 9.52804146707322E-02
428	 9.51381356952285E-02
429	 9.45746078511184E-02
430	 9.55678871916415E-02
431	 9.61156529028649E-02
432	 0.095705421644414
433	 9.62822609043591E-02
434	 9.67011251244859E-02
435	 9.66057179164477E-02
436	 9.61928301823014E-02
437	 0.096679748881729
438	 9.74212014360263E-02
439	 9.76334018815222E-02
440	 9.68741165641396E-02
441	 9.71384524632461E-02
442	 9.82676379194466E-02
443	 9.91435030699783E-02
444	 9.80249830182271E-02
445	 9.87289033848302E-02
446	 9.92662513787156E-02
447	 9.83792450917869E-02
448	 9.95935120347969E-02
449	 0.100003940327765
450	 0.099665332007105
451	 9.96414584064031E-02
452	 9.96017051212065E-02
453	 9.96843172006764E-02
454	 0.10002632525662
455	 0.10068876475552
456	 0.100792724074603
457	 0.100980887335197
458	 0.101523169958014
459	 0.101297578667702
460	 0.101126868568497
461	 0.101298697168562
462	 0.101776303890771
463	 0.101980682319687
464	 0.101935535678872
465	 0.101850186870354
466	 0.102028952068507
467	 0.102186596257759
468	 0.102565471918328
469	 0.103167431791461
470	 0.103410028480536
471	 0.103368085706449
472	 0.103238303124845
473	 0.103222491889889
474	 0.103270547365552
475	 0.103294909331631
476	 0.103326540624698
477	 0.1034793430305
478	 0.103699689954696
479	 0.103822924751334
480	 0.103912065049884
481	 0.10449577621743
482	 0.104695875123914
483	 0.104734290031513
484	 0.105017311165819
485	 0.105176484236175
486	 0.104970100044887
487	 0.104796146752603
488	 0.105401660919884
489	 0.105768577307497
490	 0.106020294536831
491	 0.106309768974681
492	 0.106518576884399
493	 0.106973761144253
494	 0.107217740921261
495	 0.10688824008806
496	 0.107076578199419
497	 0.107499197317138
498	 0.107795040597177
499	 0.107663779251769
500	 0.107851691282045
501	 0.108117349003118
502	 0.108322761010474
503	 0.108840524435707
504	 0.109116109964473
505	 0.109397133363006
506	 0.109960878840965
507	 0.10992860193543
508	 0.110021919078718
509	 0.110308108486216
510	 0.110313476994743
511	 0.110758703496799
512	 0.110924441796763
513	 0.110592372837601
514	 0.111033948142613
515	 0.111580478732212
516	 0.111943133229396
517	 0.112052118775156
518	 0.112315492963413
519	 0.112499066597115
520	 0.112700106173229
521	 0.113308422468472
522	 0.113730671566066
523	 0.113946221967723
524	 0.114047979893116
525	 0.114102310082244
526	 0.114188596439294
527	 0.114478328907391
528	 0.11504874361787
529	 0.115270864677294
530	 0.115550966195848
531	 0.11592406923007
532	 0.115978554349303
533	 0.116476895026309
534	 0.116926506160564
535	 0.116968002705714
536	 0.117311016292794
537	 0.117612248742946
538	 0.117794783593705
539	 0.117941133994901
540	 0.11832475196925
541	 0.11863069171151
542	 0.118862577052348
543	 0.119479690355142
544	 0.119742730131275
545	 0.119930791275125
546	 0.12036354051024
547	 0.120677301635265
548	 0.120907824599212
549	 0.12112796272434
550	 0.121433391480626
551	 0.121901324624631
552	 0.122300990646058
553	 0.122539445726944
554	 0.122788029562323
555	 0.123113097557541
556	 0.123513544336552
557	 0.123936998797205
558	 0.124240182695243
559	 0.124638333924191
560	 0.125062481905994
561	 0.12525944001455
562	 0.12561070806545
563	 0.125974199216727
564	 0.126248599635841
565	 0.126566311082714
566	 0.12693934526917
567	 0.12731205918602
568	 0.127632060856808
569	 0.128024340096133
570	 0.128380789537437
571	 0.128653624833385
572	 0.128874846225302
573	 0.129217686836607
574	 0.129649487742169
575	 0.130082204127269
576	 0.130395929103094
577	 0.130717515940847
578	 0.131087658008816
579	 0.131490521702914
580	 0.131814862187519
581	 0.132164900050863
582	 0.132583859251733
583	 0.133017384374265
584	 0.133276955091986
585	 0.133546519345791
586	 0.133965883827217
587	 0.134276946504747
588	 0.134557472294151
589	 0.134825730453899
590	 0.13507912709657
591	 0.135418187626326
592	 0.135752679491337
593	 0.136031364365046
594	 0.1362850542551
595	 0.136646018558707
596	 0.136956208204129
597	 0.137089672271473
598	 0.137382680007723
599	 0.137671960343771
600	 0.137933392051989
601	 0.138241877890415
602	 0.138557639156547
603	 0.138853357627375
604	 0.139119113292534
605	 0.13937144983286
606	 0.139564812383866
607	 0.139796282639117
608	 0.14014743478811
609	 0.140397544744014
610	 0.140618221271279
611	 0.140847110292221
612	 0.141074569471548
613	 0.141227664101085
614	 0.141437356020298
615	 0.141759397127623
616	 0.141986580131067
617	 0.142233318703365
618	 0.142493174893305
619	 0.142735323882885
620	 0.143068265308983
621	 0.143385903219106
622	 0.143631661052235
623	 0.143826259234802
624	 0.144125688128252
625	 0.14440855965606
626	 0.144584845221983
627	 0.144832969422393
628	 0.145116769485656
629	 0.145358431386784
630	 0.14549969227787
631	 0.145820736774372
632	 0.146106203750234
633	 0.146297482507341
634	 0.146608332682322
635	 0.146915653588317
636	 0.147202463396087
637	 0.14748810332902
638	 0.147831439845904
639	 0.148104985447591
640	 0.148357271395329
641	 0.148726824313997
642	 0.149086576027832
643	 0.149336276716321
644	 0.149499881239725
645	 0.149789734454232
646	 0.150082902547763
647	 0.150351503031845
648	 0.150613051842671
649	 0.150959453097212
650	 0.15131891432589
651	 0.151607516172249
652	 0.151762891661997
653	 0.152009994627982
654	 0.152334028297821
655	 0.152657100302125
656	 0.15285330360611
657	 0.153045825641192
658	 0.153298951158404
659	 0.153622886849828
660	 0.153875611865301
661	 0.154195717414166
662	 0.154573182906942
663	 0.154868623690222
664	 0.155141749413323
665	 0.155424846030889
666	 0.155724905106871
667	 0.155997277429104
668	 0.156338099523617
669	 0.156677906434041
670	 0.156930432575654
671	 0.157278666387585
672	 0.157573353633612
673	 0.15779592275828
674	 0.158065627705098
675	 0.158343457037043
676	 0.158625715564526
677	 0.158905460268648
678	 0.159150934521524
679	 0.159428154659077
680	 0.159699831908456
681	 0.159916054151402
682	 0.160214884589645
683	 0.160492118616655
684	 0.160723745915601
685	 0.160981681701919
686	 0.161240571484066
687	 0.161514187039769
688	 0.161802862293695
689	 0.162054033922245
690	 0.162342515372643
691	 0.162616732572962
692	 0.162808196784652
693	 0.163083814527011
694	 0.163367651542952
695	 0.163604845701549
696	 0.163787377638566
697	 0.164045243497082
698	 0.164331195595935
699	 0.164584707339663
700	 0.164808255532873
701	 0.16503213716004
702	 0.165261822350423
703	 0.165494668408077
704	 0.165764709174258
705	 0.165939511099095
706	 0.16606571876609
707	 0.166368394737136
708	 0.166580843384547
709	 0.166754900182245
710	 0.16698223469325
711	 0.167305170631734
712	 0.167585626339977
713	 0.167795641650318
714	 0.167976126506219
715	 0.168257563956031
716	 0.168510146501103
717	 0.168711199254787
718	 0.168955228352661
719	 0.16919287108993
720	 0.169421391488283
721	 0.169645724510941
722	 0.169870479656018
723	 0.170078945703262
724	 0.170294916609075
725	 0.170542753154526
726	 0.170770425609446
727	 0.171004739564362
728	 0.171238934769351
729	 0.171437983045709
730	 0.171644088336055
731	 0.171823382023898
732	 0.171963989723205
733	 0.172111614178162
734	 0.172379489843575
735	 0.172645663528188
736	 0.17278283093974
737	 0.173009373851937
738	 0.173202570762408
739	 0.17338624067295
740	 0.173671745293043
741	 0.173832035405498
742	 0.174024693609706
743	 0.174292658783172
744	 0.174416673380526
745	 0.174616319437034
746	 0.174871267964262
747	 0.175104697427113
748	 0.175290769959359
749	 0.175451149656563
750	 0.175647088125196
751	 0.175928865652009
752	 0.176099266027825
753	 0.176292931375434
754	 0.176532343678169
755	 0.176670970448989
756	 0.176851614507242
757	 0.17705919260894
758	 0.177252666726817
759	 0.177418291266263
760	 0.177551015283948
761	 0.177675826237573
762	 0.177828972223597
763	 0.178024001723062
764	 0.178263449880673
765	 0.178463482231227
766	 0.17849707454818
767	 0.178651617881932
768	 0.178820753131017
769	 0.178940584141618
770	 0.179135841328549
771	 0.179304760896443
772	 0.179472288928782
773	 0.179671674972479
774	 0.17982880638867
775	 0.1799974131346
776	 0.180177102386526
777	 0.180336958899793
778	 0.180472452710455
779	 0.180633219488054
780	 0.180804211566019
781	 0.180899524975496
782	 0.181058483299808
783	 0.181264233611915
784	 0.18145487428465
785	 0.181541147797946
786	 0.181623095144263
787	 0.181802397383424
788	 0.182098564440122
789	 0.182200056488524
790	 0.182309653144555
791	 0.182491788891954
792	 0.182689910244521
793	 0.1827830986878
794	 0.182883476814564
795	 0.183020123249055
796	 0.183087146107997
797	 0.183227186908259
798	 0.183379320492588
799	 0.183488746968996
800	 0.183630985475445
801	 0.18369781478478
802	 0.183749484445204
803	 0.183877547857483
804	 0.184024641657494
805	 0.184148466269908
806	 0.184280872473596
807	 0.184476524200422
808	 0.184535210251324
809	 0.184657962507416
810	 0.184858575779598
811	 0.184891276830564
812	 0.185038306569802
813	 0.185158759723917
814	 0.185192200753448
815	 0.185442451480508
816	 0.185565925300712
817	 0.185612499992584
818	 0.185714061193341
819	 0.185780534269595
820	 0.185949039951069
821	 0.186140874944614
822	 0.186199803107487
823	 0.18631616229748
824	 0.186471463580442
825	 0.186623813016724
826	 0.186727886603474
827	 0.186760376609691
828	 0.186858421105206
829	 0.187045580327173
830	 0.187131126928871
831	 0.187233668580516
832	 0.187366216348969
833	 0.187491247782398
834	 0.187495277887732
835	 0.187571767366363
836	 0.187731826730689
837	 0.187890319834935
838	 0.187888467456821
839	 0.18796244570328
840	 0.1881064132075
841	 0.188175009855839
842	 0.188268096831011
843	 0.188374559388364
844	 0.188446524177749
845	 0.188433517637241
846	 0.188618462810499
847	 0.188776042703329
848	 0.188796977353581
849	 0.188875785276724
850	 0.18900562073013
851	 0.189127055910493
852	 0.189196392664497
853	 0.18924334334386
854	 0.189338992916819
855	 0.189400144918997
856	 0.189365461107635
857	 0.189439087431748
858	 0.189647061329731
859	 0.189845983580548
860	 0.189882239228069
861	 0.190037688228401
862	 0.190143961039756
863	 0.190171099972253
864	 0.190217164239705
865	 0.190361290574251
866	 0.190454812203265
867	 0.190507613403503
868	 0.190699673891626
869	 0.190752504656426
870	 0.190750549134465
871	 0.190815901883628
872	 0.191019816182369
873	 0.191024956323417
874	 0.191060727194894
875	 0.191263871828441
876	 0.191285996060974
877	 0.191379108004631
878	 0.191518667219904
879	 0.191627240335844
880	 0.191723569812924
881	 0.191808170674486
882	 0.19184051649095
883	 0.191825552093054
884	 0.192007318687476
885	 0.192177291456598
886	 0.192228059289199
887	 0.192178422058452
888	 0.192332514977231
889	 0.192427486430704
890	 0.192474588385655
891	 0.192655082906735
892	 0.192773791658223
893	 0.192793355061374
894	 0.192827422277653
895	 0.193053777894763
896	 0.193091950270501
897	 0.193167256475131
898	 0.193338916034633
899	 0.193402938123271
900	 0.193367184785504
901	 0.193387521609605
902	 0.193521652829854
903	 0.193657467915867
904	 0.193839877655662
905	 0.193900666474142
906	 0.193854152401733
907	 0.194060674771006
908	 0.194238477283435
909	 0.194265244212057
910	 0.194231356401139
911	 0.194558831312523
912	 0.194614416135786
913	 0.194538336074606
914	 0.194617742372803
915	 0.194964845825582
916	 0.19504962706166
917	 0.19501570513929
918	 0.195098303963386
919	 0.195154700160301
920	 0.195185332716302
921	 0.195247845821105
922	 0.195377244568584
923	 0.19547441098991
924	 0.195529814463676
925	 0.19553112139265
926	 0.195533600871657
927	 0.195830347529971
928	 0.195882078001928
929	 0.195839356880037
930	 0.19599495282566
931	 0.195998404861469
932	 0.196024931359711
933	 0.196143893743079
934	 0.196339938433779
935	 0.196512350033114
936	 0.196469199643485
937	 0.196374716015304
938	 0.196469353075077
939	 0.196547238794796
940	 0.196789016604627
941	 0.196976760230815
942	 0.196884118030215
943	 0.197088643726398
944	 0.197068175928684
945	 0.196995231253004
946	 0.197214977555825
947	 0.197254154957393
948	 0.197291482782055
949	 0.197402534577933
950	 0.197578255252782
951	 0.197732496257769
952	 0.197750061630544
953	 0.197783855024781
954	 0.197948958127005
955	 0.197663514064488
956	 0.197845360681045
957	 0.198144091820104
958	 0.197939750380214
959	 0.197848464097151
960	 0.198021505799833
961	 0.19834490039416
962	 0.198585604139041
963	 0.198566344367122
964	 0.198630003727471
965	 0.198745309988907
966	 0.198777583326657
967	 0.198735167607611
968	 0.198913585871316
969	 0.199061057441504
970	 0.198998959750942
971	 0.199264682738518
972	 0.199263859875403
973	 0.199257670274214
974	 0.199528772641888
975	 0.199809539992319
976	 0.199952660863323
977	 0.199956286381844
978	 0.199956309506982
979	 0.20021013980811
980	 0.200082011435743
981	 0.20012695327377
982	 0.200488826899982
983	 0.200333570072023
984	 0.200541573177989
985	 0.200604075232844
986	 0.200424485766941
987	 0.200667222500416
988	 0.200872025322333
989	 0.201083955490163
990	 0.20135324254921
991	 0.20156812788542
992	 0.200765534360573
993	 0.200754676754318
994	 0.20154511702476
995	 0.201704011319303
996	 0.201758741061702
997	 0.201445243435205
998	 0.201447364436055
999	 0.202442623898487
1000	 0.202616594531144
1001	 0.206894335109438
1002	 0.207142138755709
1003	 0.207145923767568
1004	 0.207370938424105
1005	 0.207647110888783
1006	 0.207629315630908
1007	 0.207749647998056
1008	 0.207791580771525
1009	 0.207794577189303
1010	 0.207688680953198
1011	 0.207782904087668
1012	 0.20791755234634
1013	 0.208057506092711
1014	 0.208216603866329
1015	 0.208353671705199
1016	 0.208369304815925
1017	 0.208390190599457
1018	 0.208585398873035
1019	 0.208832787730011
1020	 0.209050919340852
1021	 0.209215763186996
1022	 0.209246626148843
1023	 0.209252980405055
1024	 0.209359416320042
1025	 0.209554862066168
1026	 0.209679145962235
1027	 0.209754108502333
1028	 0.209860529748725
1029	 0.209839497088156
1030	 0.209861202100564
1031	 0.209922967732675
1032	 0.20995112609368
1033	 0.210029760566683
1034	 0.210100999730661
1035	 0.2101610982151
1036	 0.21026096156612
1037	 0.210429075099823
1038	 0.210535866912112
1039	 0.21062244575173
1040	 0.210684517064858
1041	 0.210736258481656
1042	 0.210765460204375
1043	 0.210925395917305
1044	 0.211119784367627
1045	 0.211296109731798
1046	 0.211467859559632
1047	 0.21150980663535
1048	 0.211607758200248
1049	 0.211767500676777
1050	 0.21178365623593
1051	 0.211767561155901
1052	 0.211748272534674
1053	 0.21174045581498
1054	 0.211699906657672
1055	 0.211719584392731
1056	 0.211815180799407
1057	 0.211946097255938
1058	 0.212037600700749
1059	 0.212220946121715
1060	 0.212377284782706
1061	 0.212427078483099
1062	 0.212515604322817
1063	 0.212584301982054
1064	 0.212682023160217
1065	 0.212800179333081
1066	 0.212940695166496
1067	 0.213119665222492
1068	 0.213243360164364
1069	 0.213350278064421
1070	 0.213406007989171
1071	 0.213401939072352
1072	 0.21345213782829
1073	 0.213392624522524
1074	 0.213377878205392
1075	 0.213567033119253
1076	 0.213628857591112
1077	 0.213821140868122
1078	 0.214137821658123
1079	 0.214271282431458
1080	 0.214353614877748
1081	 0.214349051703138
1082	 0.214343565047854
1083	 0.214392619421175
1084	 0.214447007335902
1085	 0.21454103633262
1086	 0.214716906909686
1087	 0.214808698691981
1088	 0.214846396409471
1089	 0.214988632471928
1090	 0.215077784719029
1091	 0.215125130021492
1092	 0.215252470723279
1093	 0.21532817699362
1094	 0.215342854345826
1095	 0.215408993575211
1096	 0.215472571495896
1097	 0.215498911656597
1098	 0.215587579266988
1099	 0.215770232174623
1100	 0.215849052563305
1101	 0.215898770583013
1102	 0.215978742685846
1103	 0.216021309075363
1104	 0.216073799948156
1105	 0.216179735855736
1106	 0.216221630453393
1107	 0.216293604506968
1108	 0.216373051948463
1109	 0.216429496668718
1110	 0.216521806525773
1111	 0.216600996052059
1112	 0.216643443964906
1113	 0.216705444089386
1114	 0.216794200594944
1115	 0.216866031038516
1116	 0.21692004950768
1117	 0.216986746947863
1118	 0.217073738567671
1119	 0.217127198962173
1120	 0.217165277087733
1121	 0.217209912011568
1122	 0.217208234591935
1123	 0.21722992936343
1124	 0.217310443754388
1125	 0.217328776194309
1126	 0.217352861897181
1127	 0.217420828838994
1128	 0.217453896701563
1129	 0.217545543170565
1130	 0.217656818773938
1131	 0.21785757185697
1132	 0.217937329012925
1133	 0.217993209282591
1134	 0.218019163754705
1135	 0.217952946296681
1136	 0.21794768816974
1137	 0.217957118271128
1138	 0.217958256048176
1139	 0.217962279299413
1140	 0.21797957796331
1141	 0.21797851303274
1142	 0.218031151063299
1143	 0.218066762431764
1144	 0.2180554478585
1145	 0.218049305015286
1146	 0.218027554968146
1147	 0.217993873708601
1148	 0.217976227503458
1149	 0.217893509991208
1150	 0.217719974719946
1151	 0.217640409318911
1152	 0.21750738663632
1153	 0.217518734537338
1154	 0.217735828891239
1155	 0.217774284016084
1156	 0.217800292449395
1157	 0.217810122010114
1158	 0.217674538274564
1159	 0.217640378042062
1160	 0.217705184638685
1161	 0.217735704237919
1162	 0.21777436959682
1163	 0.217828375598805
1164	 0.217877728818546
1165	 0.21793549986877
1166	 0.21797273909849
1167	 0.217983317854499
1168	 0.218034168024776
1169	 0.218080718085767
1170	 0.218154084219975
1171	 0.218286401139243
1172	 0.218381344577077
1173	 0.218478978813232
1174	 0.21854267119667
1175	 0.218542448941968
1176	 0.218616193827726
1177	 0.218690568489126
1178	 0.218755284367592
1179	 0.218839641772696
1180	 0.218894050234703
1181	 0.21896104110924
1182	 0.219007439304054
1183	 0.219065490548778
1184	 0.219150551807118
1185	 0.219202776983525
1186	 0.219237078530388
1187	 0.219262403317736
1188	 0.219256126953186
1189	 0.219285284603455
1190	 0.219340662270824
1191	 0.219361709728153
1192	 0.219366386202206
1193	 0.219394743347741
1194	 0.219425474293659
1195	 0.219415413818497
1196	 0.219463715373799
1197	 0.219573777492132
1198	 0.219636160508752
1199	 0.219699089980647
1200	 0.219748100754583
1201	 0.219784066098339
1202	 0.219812880527947
1203	 0.219823038963515
1204	 0.219855609157639
1205	 0.219893171586006
1206	 0.219920082403102
1207	 0.219940281124989
1208	 0.219981962395985
1209	 0.220028237348714
1210	 0.220077959619198
1211	 0.220160558024339
1212	 0.220221714002189
1213	 0.220270936718812
1214	 0.220300695598813
1215	 0.220365625375943
1216	 0.220428001765608
1217	 0.220464351896504
1218	 0.220496857005207
1219	 0.220526469704416
1220	 0.220521640437707
1221	 0.220547619145421
1222	 0.220601728159907
1223	 0.220629485961679
1224	 0.22063491371561
1225	 0.220676314930467
1226	 0.220741114204788
1227	 0.220776346074542
1228	 0.220822878963926
1229	 0.220856104965058
1230	 0.220828137095872
1231	 0.220857561717497
1232	 0.220956266382692
1233	 0.221002574676115
1234	 0.221060484172859
1235	 0.221068158954979
1236	 0.221119144436993
1237	 0.22115499912138
1238	 0.221180304370229
1239	 0.221239831632243
1240	 0.221257996244123
1241	 0.221209633634193
1242	 0.221219725411987
1243	 0.221258837077589
1244	 0.221282877808986
1245	 0.221311306642863
1246	 0.221342357492837
1247	 0.22136565662172
1248	 0.221403330129327
1249	 0.221470393864448
1250	 0.221507736965599
1251	 0.221544351601515
1252	 0.221563497794283
1253	 0.221543940610367
1254	 0.221543629743767
1255	 0.221546113710083
1256	 0.221534598838347
1257	 0.221573799132064
1258	 0.221650614302959
1259	 0.221691139527845
1260	 0.221748770694883
1261	 0.221788565388837
1262	 0.221795069430199
1263	 0.221825680631531
1264	 0.221873381320719
1265	 0.221910810740471
1266	 0.221951245511879
1267	 0.221977344322641
1268	 0.221984908758891
1269	 0.222013780125109
1270	 0.222052906009854
1271	 0.222074718375132
1272	 0.22211905365546
1273	 0.222130816022895
1274	 0.222087727360625
1275	 0.222076720274118
1276	 0.222066441455198
1277	 0.222063458117663
1278	 0.222070229684566
1279	 0.222096953744169
1280	 0.222113399969317
1281	 0.222127810317099
1282	 0.222148417214899
1283	 0.222190603254151
1284	 0.222189471585433
1285	 0.222163159903836
1286	 0.222154635610869
1287	 0.222115862896808
1288	 0.222111956224134
1289	 0.222160835356887
1290	 0.222159011945597
1291	 0.222133620520438
1292	 0.222120517411207
1293	 0.222076534463153
1294	 0.222059155930127
1295	 0.222073875003126
1296	 0.222075045456594
1297	 0.222085023190256
1298	 0.222084367952772
1299	 0.222098848079649
1300	 0.222063975777485
1301	 0.222029928556181
1302	 0.221969686383282
1303	 0.221946097911699
1304	 0.221925584961606
1305	 0.221897786150334
1306	 0.221889502310757
1307	 0.22186895759138
1308	 0.221825172522185
1309	 0.221800077060774
1310	 0.221808213781441
1311	 0.221772211508434
1312	 0.221697950552977
1313	 0.221659671992387
1314	 0.221617840701646
1315	 0.221581200829872
1316	 0.221596719181985
1317	 0.221555520269483
1318	 0.22146255517898
1319	 0.221398626991164
1320	 0.221317419471595
1321	 0.221251271059527
1322	 0.22120600709553
1323	 0.221164089591867
1324	 0.221139858364975
1325	 0.221095638868979
1326	 0.221048590034357
1327	 0.220999566547461
1328	 0.220918125670373
1329	 0.220800508570207
1330	 0.220706975156956
1331	 0.220606521532482
1332	 0.220505088536242
1333	 0.220400890948558
1334	 0.220310721016311
1335	 0.220208409737186
1336	 0.220140988341445
1337	 0.220123406293396
1338	 0.220058427328684
1339	 0.219990096714374
1340	 0.219913097635943
1341	 0.219796272186692
1342	 0.219709118875782
1343	 0.219634029812823
1344	 0.219564070220054
1345	 0.219510599823956
1346	 0.219446825549866
1347	 0.21940298670256
1348	 0.219323615149444
1349	 0.219220914763755
1350	 0.219115674298532
1351	 0.218958600165151
1352	 0.218838855542437
1353	 0.218721624621574
1354	 0.218603855537901
1355	 0.218503665148375
1356	 0.218418865723822
1357	 0.218333406066445
1358	 0.218257983745255
1359	 0.218181145303038
1360	 0.218123151615788
1361	 0.21803394172818
1362	 0.217919583785706
1363	 0.217831396602044
1364	 0.217741575499895
1365	 0.217652834170649
1366	 0.217597017327871
1367	 0.217502611076346
1368	 0.217371151466196
1369	 0.217261291006023
1370	 0.217161995784333
1371	 0.217038672781641
1372	 0.216943092075078
1373	 0.216791053052164
1374	 0.216595398647671
1375	 0.216385016013992
1376	 0.216162500861619
1377	 0.215876165630963
1378	 0.215588307962183
1379	 0.215279160938541
1380	 0.214913708057837
1381	 0.214536477155756
1382	 0.214126781122448
1383	 0.213676074318368
1384	 0.213240856165601
1385	 0.212807336863636
1386	 0.212329129554421
1387	 0.211841962346362
1388	 0.211329361014032
1389	 0.210780504070427
1390	 0.210227414390852
1391	 0.209660843755506
1392	 0.20907485252299
1393	 0.208472912968531
1394	 0.207835287670729
1395	 0.207180140351964
1396	 0.206499678882951
1397	 0.205786630583967
1398	 0.205048634940365
1399	 0.204288695470992
1400	 0.20350828862171
1401	 0.202697328848512
1402	 0.201867163743133
1403	 0.201009584813327
1404	 0.200146244286031
1405	 0.199248358102529
1406	 0.198368789137014
1407	 0.197483368875151
1408	 0.196601192980727
1409	 0.195766662628954
1410	 0.194956148314168
1411	 0.194185600263463
1412	 0.193474590570341
1413	 0.192812859938596
1414	 0.19221799502531
1415	 0.191684343252263
1416	 0.191194349897305
1417	 0.190772697776004
1418	 0.190403412325194
1419	 0.190086504543589
1420	 0.189851101455176
1421	 0.189626298577043
1422	 0.189435601789267
1423	 0.18927631490676
1424	 0.189144663023462
1425	 0.189059330957337
1426	 0.189024116026835
1427	 0.188998684042683
1428	 0.189009212040161
1429	 0.189033546228485
1430	 0.189077177700121
1431	 0.189136895002352
1432	 0.189225338150566
1433	 0.189321969528576
1434	 0.189438447335525
1435	 0.189547903314037
1436	 0.189667554926296
1437	 0.189785091735345
1438	 0.189887612372747
1439	 0.190016604419937
1440	 0.190166527055396
1441	 0.190315736537401
1442	 0.190481228655847
1443	 0.190640244061288
1444	 0.190776360282233
1445	 0.190949635522903
1446	 0.191143446587783
1447	 0.191354205470559
1448	 0.1916474715686
1449	 0.191910095673203
1450	 0.192150127541699
1451	 0.192412256471703
1452	 0.192628306655963
1453	 0.192828692844979
1454	 0.193034991744461
1455	 0.193217230887217
1456	 0.193383944126322
1457	 0.193525656470422
1458	 0.193669480260675
1459	 0.193810713606328
1460	 0.193925735307011
1461	 0.19401938462098
1462	 0.194116338935674
1463	 0.194178821829376
1464	 0.19428590349162
1465	 0.194409817727438
1466	 0.194543329285355
1467	 0.194695241424815
1468	 0.194858209131004
1469	 0.195019102363746
1470	 0.195218141219574
1471	 0.195437620154785
1472	 0.195686646093781
1473	 0.195995387716844
1474	 0.196265614631562
1475	 0.196538940166889
1476	 0.196815846300864
1477	 0.197074511040888
1478	 0.197340236958392
1479	 0.197616788036268
1480	 0.197899009024994
1481	 0.198190534296088
1482	 0.198469905077214
1483	 0.198764293277723
1484	 0.199033324171506
1485	 0.199273532632102
1486	 0.1995063633336
1487	 0.199709414679334
1488	 0.199950026394835
1489	 0.200207874979382
1490	 0.200452695306004
1491	 0.200717438727043
1492	 0.200970097908745
1493	 0.201192775868803
1494	 0.201439596005276
1495	 0.201698861057959
1496	 0.201956899275176
1497	 0.202206172425427
1498	 0.202462701850496
1499	 0.202752811313782
1500	 0.202995202279617
1501	 0.203224361840584
1502	 0.203483564159605
1503	 0.203702595069401
1504	 0.203913799668346
1505	 0.204148236319248
1506	 0.204359460652093
1507	 0.204555300049516
1508	 0.204739357905448
1509	 0.204914378811824
1510	 0.205066432101547
1511	 0.205228686308159
1512	 0.205388272731525
1513	 0.205543808299675
1514	 0.205688383022317
1515	 0.205851627562591
1516	 0.206027701596904
1517	 0.206191619071163
1518	 0.206371769228579
1519	 0.2065216353018
1520	 0.206633502317716
1521	 0.2067760377932
1522	 0.206949466997207
1523	 0.207057343154724
1524	 0.20713406918076
1525	 0.207234500552137
1526	 0.207283630505588
1527	 0.207381980505778
1528	 0.20755120241676
1529	 0.207660374111771
1530	 0.207740544872429
1531	 0.207836385761639
1532	 0.207924679942582
1533	 0.20800714537045
1534	 0.208086834853675
1535	 0.208174919012401
1536	 0.208249912168032
1537	 0.208340771712931
1538	 0.208456863364744
1539	 0.208562035217976
1540	 0.208653066073507
1541	 0.20876780087902
1542	 0.208897578711853
1543	 0.20902402681369
1544	 0.20918262730294
1545	 0.209300733952902
1546	 0.209388137358539
1547	 0.209487334022258
1548	 0.209551001164748
1549	 0.20965508002698
1550	 0.209805306430455
1551	 0.209925090655552
1552	 0.21005374573841
1553	 0.210168029177848
1554	 0.210251682752819
1555	 0.210344277837835
1556	 0.210453755111108
1557	 0.210536113790924
1558	 0.210582858959614
1559	 0.210661343347675
1560	 0.210740135353715
1561	 0.210822520214111
1562	 0.210957590215088
1563	 0.211041761977678
1564	 0.211070910187773
1565	 0.211130156100878
1566	 0.211165284256117
1567	 0.211229821980809
1568	 0.211352043278374
1569	 0.211439940210545
1570	 0.21153248490221
1571	 0.211602273759398
1572	 0.211623091141315
1573	 0.211672185551015
1574	 0.211726676139721
1575	 0.211779713101231
1576	 0.211848053717962
1577	 0.211913348242948
1578	 0.211975838734927
1579	 0.212044239820377
1580	 0.212122155346758
1581	 0.212206171174267
1582	 0.212286638910642
1583	 0.212343117244061
1584	 0.212407249717195
1585	 0.212461461365151
1586	 0.212487388677012
1587	 0.212545718482691
1588	 0.212605933847498
1589	 0.212646153786612
1590	 0.212700792546479
1591	 0.212752396518411
1592	 0.212821210152866
1593	 0.212908520224139
1594	 0.212995715690284
1595	 0.213085882135427
1596	 0.213123880413495
1597	 0.213163198186858
1598	 0.213240467509655
1599	 0.2132700120166
1600	 0.213297441357613
1601	 0.213346538350354
1602	 0.213364737555893
1603	 0.213405947758134
1604	 0.213481578445823
1605	 0.213541665137399
1606	 0.213605627638083
1607	 0.213658993303604
1608	 0.2136795852139
1609	 0.213713183406658
1610	 0.213752545400135
1611	 0.213801266862287
1612	 0.213873021604169
1613	 0.213902004735213
1614	 0.213918781406288
1615	 0.213957675406775
1616	 0.213990197731845
1617	 0.214062197300338
1618	 0.214110917319522
1619	 0.214166568951569
1620	 0.214217652669739
1621	 0.214261365955484
1622	 0.214302017530148
1623	 0.214351899248821
1624	 0.214376951694888
1625	 0.214382232494157
1626	 0.214397564510445
1627	 0.214405713509897
1628	 0.214409943604765
1629	 0.214429969688288
1630	 0.214435456386839
1631	 0.214490236421784
1632	 0.214595686981861
1633	 0.214667131273065
1634	 0.214782139481919
1635	 0.214802668421753
1636	 0.214683666621378
1637	 0.214674385558592
1638	 0.214648279432447
1639	 0.214634404975205
1640	 0.214726012852211
1641	 0.214786102968409
1642	 0.214856144850036
1643	 0.214887405512947
1644	 0.214851995956445
1645	 0.21487025789132
1646	 0.214913038753919
1647	 0.21492672420109
1648	 0.214961774618812
1649	 0.214995227896179
1650	 0.214990094161016
1651	 0.214992652886306
1652	 0.215016004914904
1653	 0.215039009347914
1654	 0.21503831270846
1655	 0.21506111159208
1656	 0.215135679241979
1657	 0.215164571591537
1658	 0.215165644519568
1659	 0.215181594514855
1660	 0.215169367688796
1661	 0.215173374613514
1662	 0.215219141549889
1663	 0.215234373908949
1664	 0.215231194191104
1665	 0.215226841953961
1666	 0.215198856113995
1667	 0.215186128166873
1668	 0.21519217814172
1669	 0.21517647672642
1670	 0.21514411734181
1671	 0.215129858231988
1672	 0.215098027797836
1673	 0.215093057328769
1674	 0.215154051451818
1675	 0.215149735460765
1676	 0.215104392207489
1677	 0.215082395618016
1678	 0.21502362860177
1679	 0.214996141237379
1680	 0.215027588495332
1681	 0.215011978099833
1682	 0.21495935074807
1683	 0.214935920706012
1684	 0.214901103403864
1685	 0.214888696901835
1686	 0.214932176277805
1687	 0.214919882106809
1688	 0.21489138578043
1689	 0.214845037151716
1690	 0.21473265439772
1691	 0.21468954491682
1692	 0.214676746947117
1693	 0.214651863953554
1694	 0.214671397014752
1695	 0.214649264202815
1696	 0.21459143518692
1697	 0.214547533847512
1698	 0.214496641001405
1699	 0.21445176720474
1700	 0.214412346553051
1701	 0.214363965799675
1702	 0.214305203850162
1703	 0.214266788865056
1704	 0.214241402347855
1705	 0.214196055435108
1706	 0.214170355148251
1707	 0.214098985975468
1708	 0.213976087629668
1709	 0.21389913730786
1710	 0.213826458018756
1711	 0.213745412809457
1712	 0.213687406469867
1713	 0.213590387231952
1714	 0.213445633910762
1715	 0.213366524359873
1716	 0.213318079550013
1717	 0.213230396078606
1718	 0.213161650379043
1719	 0.213051707558937
1720	 0.212937811205387
1721	 0.21282765268534
1722	 0.212714734802137
1723	 0.212657867047322
1724	 0.212549773383078
1725	 0.21241283584541
1726	 0.212311110144699
1727	 0.212152771722602
1728	 0.211983937553068
1729	 0.21188671900286
1730	 0.211770376276889
1731	 0.2116621161936
1732	 0.211577473463824
1733	 0.21142292413422
1734	 0.211278140320557
1735	 0.211075167608767
1736	 0.210939010585162
1737	 0.210887429780399
1738	 0.210801531944953
1739	 0.210741561073338
1740	 0.210657520043787
1741	 0.210554329829928
1742	 0.210425895422358
1743	 0.21025110479216
1744	 0.210128300528819
1745	 0.210027566445843
1746	 0.209901774341158
1747	 0.209793591177427
1748	 0.209679808604138
1749	 0.209514053020677
1750	 0.209398738445897
1751	 0.209320471764921
1752	 0.209250428120296
1753	 0.209219770136741
1754	 0.209147898198566
1755	 0.209053539481122
1756	 0.209006166620648
1757	 0.208969137484836
1758	 0.208887293184464
1759	 0.208835451080322
1760	 0.208752967415357
1761	 0.208626817245241
1762	 0.208530854692296
1763	 0.208439697495377
1764	 0.208349940083446
1765	 0.208247046344898
1766	 0.208165832566602
1767	 0.208098376354713
1768	 0.208018666684005
1769	 0.207956599207002
1770	 0.207957367768987
1771	 0.207916262360741
1772	 0.207845286353107
1773	 0.207807384786541
1774	 0.207709579724043
1775	 0.207621869294503
1776	 0.207538449385978
1777	 0.207426030803725
1778	 0.20732100694208
1779	 0.207234298193595
1780	 0.207190341021739
1781	 0.207157281293962
1782	 0.207171846062886
1783	 0.207157019251042
1784	 0.207125869162615
1785	 0.20710842121975
1786	 0.207108390392598
1787	 0.207087323125548
1788	 0.207058875442264
1789	 0.207047055375703
1790	 0.207005575109429
1791	 0.20699365716834
1792	 0.207017974504016
1793	 0.207023133451939
1794	 0.207031862493049
1795	 0.207015026639357
1796	 0.206999360758462
1797	 0.207023523978451
1798	 0.207027452092722
1799	 0.206999494679489
1800	 0.206991973221554
1801	 0.206959809767531
1802	 0.206915156523587
1803	 0.206895153041632
1804	 0.20689454761526
1805	 0.206878100675822
1806	 0.206881138542385
1807	 0.206935443593036
1808	 0.206972325772362
1809	 0.206994306133684
1810	 0.207011489965418
1811	 0.207024750485101
1812	 0.207024867547646
1813	 0.207005486380546
1814	 0.207008139051233
1815	 0.206980836894563
1816	 0.206993627437917
1817	 0.207075557369109
1818	 0.207093026176453
1819	 0.207121009240325
1820	 0.207115722708044
1821	 0.207017756354243
1822	 0.206927453270941
1823	 0.206814498376271
1824	 0.206717386449024
1825	 0.206703591255342
1826	 0.206768119441106
1827	 0.206840359822346
1828	 0.206808092239555
1829	 0.20685256578566
1830	 0.206844468514014
1831	 0.214043994823007
1832	 0.214093524599206
1833	 0.214142985585119
1834	 0.214148943906905
1835	 0.214240430900275
1836	 0.214214018302356
1837	 0.214031565551095
1838	 0.213941895065402
1839	 0.213874119238263
1840	 0.213768053740332
1841	 0.213748760282243
1842	 0.213655579413401
1843	 0.213547913308641
1844	 0.213441299489286
1845	 0.213307303532426
1846	 0.213107153471004
1847	 0.212976762379188
1848	 0.212879922061883
1849	 0.212726010626563
1850	 0.212633173919454
1851	 0.212468186732658
1852	 0.212240333433033
1853	 0.212081189282885
1854	 0.211853855571621
1855	 0.211566680202184
1856	 0.211287982846999
1857	 0.21103275341638
1858	 0.210680999343882
1859	 0.210284608282148
1860	 0.209891857543584
1861	 0.209373527280579
1862	 0.208845858548555
1863	 0.208202269364869
1864	 0.207641961638161
1865	 0.207101198996397
1866	 0.206596841125281
1867	 0.205943913273424
1868	 0.205307414465738
1869	 0.204592351916789
1870	 0.203594167218339
1871	 0.202531763163866
1872	 0.20145337660585
1873	 0.200301382872287
1874	 0.199139919973538
1875	 0.197978408346256
1876	 0.196819318028944
1877	 0.195644505822426
1878	 0.194331983036819
1879	 0.192966951684488
1880	 0.191506147276536
1881	 0.189862172502518
1882	 0.188101972366233
1883	 0.186308749617823
1884	 0.184481138263257
1885	 0.18259854924801
1886	 0.180570106785124
1887	 0.178477468875752
1888	 0.176272562952254
1889	 0.173971272307361
1890	 0.17154205083541
1891	 0.169145797629351
1892	 0.16665304425149
1893	 0.164147136791703
1894	 0.16173300345555
1895	 0.159275379711798
1896	 0.15675061098169
1897	 0.154242767221196
1898	 0.151844166898346
1899	 0.149539279556386
1900	 0.147304523015075
1901	 0.145169429122384
1902	 0.143147265003612
1903	 0.141197569808203
1904	 0.139300246276314
1905	 0.137591636156136
1906	 0.135972452888039
1907	 0.13448416052584
1908	 0.133186124864858
1909	 0.131945445923278
1910	 0.130953753441954
1911	 0.130045746395922
1912	 0.129286217435906
1913	 0.128521509234194
1914	 0.127879515501874
1915	 0.127317420573113
1916	 0.126855734043952
1917	 0.126488006076257
1918	 0.126228261186513
1919	 0.126015441645866
1920	 0.125839747950468
1921	 0.125689829465867
1922	 0.12561962368499
1923	 0.125569367951714
1924	 0.125539023628685
1925	 0.125516269728828
1926	 0.125674869422853
1927	 0.12575643376336
1928	 0.125843925208398
1929	 0.125967503117218
1930	 0.125946886877178
1931	 0.126041774439238
1932	 0.126241791610344
1933	 0.126387705320629
1934	 0.126572758146961
1935	 0.126814940596953
1936	 0.127047273979037
1937	 0.127227951858481
1938	 0.127496294731782
1939	 0.12782067235826
1940	 0.128193968051146
1941	 0.128571163013177
1942	 0.128934607752672
1943	 0.129368462065869
1944	 0.129736841082642
1945	 0.130132362183401
1946	 0.130565530172172
1947	 0.131012710970356
1948	 0.131442205453796
1949	 0.131922334503097
1950	 0.13244210720951
1951	 0.132954273600953
1952	 0.133481649540229
1953	 0.134009413685592
1954	 0.134599060459636
1955	 0.135273855996373
1956	 0.135955308112224
1957	 0.136650409910012
1958	 0.137353311272865
1959	 0.138094010931441
1960	 0.138755561184907
1961	 0.13938615850835
1962	 0.140064139915439
1963	 0.140641806581064
1964	 0.141104508488334
1965	 0.141605599276054
1966	 0.14206464774913
1967	 0.142512522222975
1968	 0.143004362623493
1969	 0.143511891977538
1970	 0.144036759830302
1971	 0.14456846643833
1972	 0.145146471240687
1973	 0.145686099858831
1974	 0.14619972541821
1975	 0.146762756980838
1976	 0.147284237356844
1977	 0.147835321804565
1978	 0.148474069182684
1979	 0.149090457107336
1980	 0.149705023962774
1981	 0.150294871552609
1982	 0.15089848766234
1983	 0.151478556763816
1984	 0.152078029290111
1985	 0.152694291132852
1986	 0.153333198992472
1987	 0.153979440870952
1988	 0.154619569461097
1989	 0.155296227948359
1990	 0.155995184581019
1991	 0.15675705446683
1992	 0.157557524260368
1993	 0.15838133130244
1994	 0.159213459510539
1995	 0.159935812340795
1996	 0.160526576225208
1997	 0.16120990398354
1998	 0.161855623576671
1999	 0.162538330051135
2000	 0.163260189744215
2001	 0.164044910340128
2002	 0.164736621686401
2003	 0.165373753888515
2004	 0.166099372870214
2005	 0.166694681844641
2006	 0.16727517023017
2007	 0.16790209671827
2008	 0.168508328786783
2009	 0.1690851865117
2010	 0.169686867510417
2011	 0.170336334757443
2012	 0.170927512573671
2013	 0.171481269042474
2014	 0.171991750864876
2015	 0.172475228218635
2016	 0.172929233096217
2017	 0.17333137994844
2018	 0.173791064806685
2019	 0.174248906438888
2020	 0.174693477557772
2021	 0.175147764542429
2022	 0.175636429497805
2023	 0.17605649375424
2024	 0.176458611419459
2025	 0.176827305249029
2026	 0.177121546144479
2027	 0.177457859571323
2028	 0.177801336364699
2029	 0.178122693085833
2030	 0.178495247356073
2031	 0.178833205521042
2032	 0.179112761023761
2033	 0.179418592502276
2034	 0.179725861789337
2035	 0.180036810801811
2036	 0.180316481118821
2037	 0.18063276669363
2038	 0.180872158511012
2039	 0.180980053654199
2040	 0.181197672877374
2041	 0.181446635318807
2042	 0.181697782872302
2043	 0.181989193252554
2044	 0.182308755495219
2045	 0.182580962302293
2046	 0.182785920768539
2047	 0.183009398194861
2048	 0.183230962962152
2049	 0.183418124623899
2050	 0.18359562782145
2051	 0.183779369694442
2052	 0.183925912406135
2053	 0.184119002146083
2054	 0.184331882870752
2055	 0.184566961678535
2056	 0.184850214784769
2057	 0.185117259306918
2058	 0.185432452369083
2059	 0.185665297142424
2060	 0.185851632404334
2061	 0.186051573450776
2062	 0.186173968836458
2063	 0.186330970751876
2064	 0.186651295350159
2065	 0.186893474563496
2066	 0.187148939801349
2067	 0.187504097510984
2068	 0.187733641527384
2069	 0.187893724540104
2070	 0.188014343170511
2071	 0.187975069871676
2072	 0.188116539051127
2073	 0.18831727543946
2074	 0.188507011182842
2075	 0.188825949217003
2076	 0.189057613187969
2077	 0.18930823576258
2078	 0.189509321460116
2079	 0.189674784841957
2080	 0.189950927615514
2081	 0.190131225200013
2082	 0.190200924359493
2083	 0.190348291163463
2084	 0.190536650958214
2085	 0.190699219529962
2086	 0.190852619014435
2087	 0.191025531467235
2088	 0.191187615375752
2089	 0.191350029308166
2090	 0.191568371429992
2091	 0.191730438776791
2092	 0.19182041331388
2093	 0.191989111251096
2094	 0.192133364672905
2095	 0.192262356879699
2096	 0.192496189163465
2097	 0.192654856711409
2098	 0.19280244276577
2099	 0.192931313596127
2100	 0.193064794853578
2101	 0.193163542958065
2102	 0.193285436238983
2103	 0.193425714104167
2104	 0.193531742310491
2105	 0.193618077801127
2106	 0.193725375702311
2107	 0.193830421849719
2108	 0.193939931945212
2109	 0.19406207364363
2110	 0.194150343733722
2111	 0.194347781755012
2112	 0.194514966924716
2113	 0.194703738967129
2114	 0.194940599208304
2115	 0.195063180629177
2116	 0.195084418536944
2117	 0.195147903596425
2118	 0.19514362859272
2119	 0.195231525927726
2120	 0.195356936573779
2121	 0.195505269471078
2122	 0.195743330351398
2123	 0.195910849290475
2124	 0.19609506926276
2125	 0.196217561926155
2126	 0.196302590196238
2127	 0.196315675797857
2128	 0.196390696671761
2129	 0.196377421023693
2130	 0.196356851473607
2131	 0.19638225376003
2132	 0.196445012070783
2133	 0.196525805383855
2134	 0.196641054931416
2135	 0.19687127207739
2136	 0.196944127914291
2137	 0.196923042965482
2138	 0.196924505768678
2139	 0.196866236330892
2140	 0.196836879873316
2141	 0.196838510516379
2142	 0.196839233460325
2143	 0.196873613397499
2144	 0.196818656333489
2145	 0.196726759291264
2146	 0.196617707799119
2147	 0.196413409890694
2148	 0.196232772059042
2149	 0.19608738318854
2150	 0.195970891850624
2151	 0.195858491736694
2152	 0.195826098817468
2153	 0.195758341272119
2154	 0.19571692032833
2155	 0.195644321519817
2156	 0.19559019635656
2157	 0.195426711597706
2158	 0.195177656404701
2159	 0.195002707406856
2160	 0.194743168626038
2161	 0.194600647806279
2162	 0.194613816962934
2163	 0.194512750560696
2164	 0.19442175404179
2165	 0.194275974742814
2166	 0.194005341019396
2167	 0.193821061827184
2168	 0.193637450841338
2169	 0.193459209017647
2170	 0.193473104770116
2171	 0.193543750640038
2172	 0.193527103961339
2173	 0.193476102309266
2174	 0.193377377867787
2175	 0.19314960181263
2176	 0.192986063969435
2177	 0.192817574968324
2178	 0.192694885935459
2179	 0.192555878484949
2180	 0.192446726077297
2181	 0.192462760441713
2182	 0.192364480618081
2183	 0.192159182684681
2184	 0.192048522532595
2185	 0.19190996635192
2186	 0.191818294910538
2187	 0.19187110575314
2188	 0.191815852213826
2189	 0.191725565091878
2190	 0.191607739641766
2191	 0.191497273998678
2192	 0.1913218289801
2193	 0.191134662971035
2194	 0.190995580236239
2195	 0.190769213248245
2196	 0.190561136598785
2197	 0.190327371636398
2198	 0.190053208809748
2199	 0.189868718415891
2200	 0.189673754178952
2201	 0.189547552829459
2202	 0.189519232383847
2203	 0.189439784276593
2204	 0.189415381604581
2205	 0.189294964459961
2206	 0.189094244342552
2207	 0.188978858506779
2208	 0.188838879094254
2209	 0.188738646851352
2210	 0.188663369402919
2211	 0.188660955932216
2212	 0.188657134961994
2213	 0.188725655989714
2214	 0.189016453946364
2215	 0.189162894463936
2216	 0.189260854859364
2217	 0.189356484794937
2218	 0.189460731307267
2219	 0.189355857651484
2220	 0.189263497908023
2221	 0.18929801016701
2222	 0.189280120465898
2223	 0.189299490570806
2224	 0.189340450412851
2225	 0.189460598919855
2226	 0.189506824863162
2227	 0.189534109056586
2228	 0.189542553413862
2229	 0.189501135959124
2230	 0.189527599581338
2231	 0.189594100377806
2232	 0.18962288602411
2233	 0.189669019074805
2234	 0.189680126472213
2235	 0.189629190997866
2236	 0.189607738984241
2237	 0.189600243299723
2238	 0.189598354167183
2239	 0.189642663951199
2240	 0.189616554993064
2241	 0.189532168791186
2242	 0.18951193560271
2243	 0.189494678027651
2244	 0.189398415092414
2245	 0.1892978802588
2246	 0.189222595593244
2247	 0.188998318691217
2248	 0.188840591919536
2249	 0.188676176872855
2250	 0.188521050661129
2251	 0.188351813131594
2252	 0.188215925783632
2253	 0.188293351207904
2254	 0.18835749271023
2255	 0.188441810511943
2256	 0.188517626313485
2257	 0.188442510293445
2258	 0.188234315373014
2259	 0.188028363623768
2260	 0.187700087736438
2261	 0.187508105845229
2262	 0.18729587193638
2263	 0.187132030395985
2264	 0.18710654664208
2265	 0.186941624217705
2266	 0.186757992066437
2267	 0.186539902604959
2268	 0.186168958910055
2269	 0.185957629034411
2270	 0.185794861376252
2271	 0.185641780786191
2272	 0.185638263312498
2273	 0.185511783207405
2274	 0.185329657517286
2275	 0.185089707062811
2276	 0.184729316769474
2277	 0.184489802468418
2278	 0.184313500732317
2279	 0.184110885161478
2280	 0.183948382691553
2281	 0.183766288574027
2282	 0.183585636721288
2283	 0.183235433309697
2284	 0.183050653937991
2285	 0.182827913569654
2286	 0.18256844672927
2287	 0.182445842648184
2288	 0.182313651643418
2289	 0.182085113524372
2290	 0.181952178196876
2291	 0.181943908583461
2292	 0.181889127680833
2293	 0.181836092254268
2294	 0.181637566625218
2295	 0.181339314403597
2296	 0.181004965175929
2297	 0.180732514425868
2298	 0.180758593615894
2299	 0.180698178813132
2300	 0.180587175955561
2301	 0.180499699308991
2302	 0.180330372716388
2303	 0.179958667810833
2304	 0.17984435584436
2305	 0.179855999918652
2306	 0.179801544346368
2307	 0.179763778861043
2308	 0.179695997636125
2309	 0.179663073389965
2310	 0.179543652496248
2311	 0.179366719261719
2312	 0.17928672807389
2313	 0.179230579354789
2314	 0.179048950934086
2315	 0.178852903354495
2316	 0.178682777897535
2317	 0.178304698908111
2318	 0.178115866138742
2319	 0.178108549341382
2320	 0.178099714359759
2321	 0.178224483346244
2322	 0.178243319602377
2323	 0.178334116143335
2324	 0.178223672285143
2325	 0.177844433994976
2326	 0.177577231002459
2327	 0.177208004781753
2328	 0.177038504416111
2329	 0.177106568636088
2330	 0.177012636252245
2331	 0.176811155998998
2332	 0.176782860804267
2333	 0.176885431393063
2334	 0.176763291964161
2335	 0.176665162904306
2336	 0.1765133839571
2337	 0.17606960281153
2338	 0.175831690360546
2339	 0.175856603421092
2340	 0.175741491884078
2341	 0.175648750982486
2342	 0.175266200064816
2343	 0.175006170846361
2344	 0.174772404323365
2345	 0.174478508051469
2346	 0.174323284285184
2347	 0.174287966353543
2348	 0.174038399964098
2349	 0.17359278330512
2350	 0.173198959508548
2351	 0.172748787888961
2352	 0.172267142581116
2353	 0.172030290282223
2354	 0.171979540808507
2355	 0.171805534727463
2356	 0.171458300128886
2357	 0.171080789277896
2358	 0.170736049203871
2359	 0.170341088393762
2360	 0.17011673675371
2361	 0.170081497738875
2362	 0.169827989568297
2363	 0.169545280808218
2364	 0.169232380664619
2365	 0.168880242188397
2366	 0.168600131995124
2367	 0.168221886371445
2368	 0.167973162973054
2369	 0.167672846037457
2370	 0.167269050499978
2371	 0.166749827293602
2372	 0.166051672266851
2373	 0.165563120631665
2374	 0.165083555225251
2375	 0.164898207079197
2376	 0.164961294944542
2377	 0.164502833281605
2378	 0.164116276525627
2379	 0.163526100881895
2380	 0.162694771726948
2381	 0.162598119755344
2382	 0.162442397692724
2383	 0.162301668591061
2384	 0.162255112064854
2385	 0.161395565033348
2386	 0.160420041344261
2387	 0.159669855290253
2388	 0.159051635245065
2389	 0.158694131193434
2390	 0.158363433852776
2391	 0.158109038495238
2392	 0.157752270267621
2393	 0.157537489353946
2394	 0.157308292708603
2395	 0.156655808345194
2396	 0.155941385767563
2397	 0.155156262616218
2398	 0.154387609879621
2399	 0.153870671980668
2400	 0.153382313388795
2401	 0.152505067393855
2402	 0.151737420883147
2403	 0.151262563464952
2404	 0.150537720998817
2405	 0.149998697899675
2406	 0.149749699272215
2407	 0.149242217481462
2408	 0.148617392643564
2409	 0.148349593995601
2410	 0.148083286281341
2411	 0.14743376955629
2412	 0.147112022799661
2413	 0.147313475409465
2414	 0.147192265523512
2415	 0.146805585697084
2416	 0.146563181667354
2417	 0.145878655616827
2418	 0.145281149096512
2419	 0.145178501423254
2420	 0.1448924991167
2421	 0.144644412569059
2422	 0.14406833873234
2423	 0.143823749806556
2424	 0.143463426416984
2425	 0.142873450153427
2426	 0.142403887473449
2427	 0.14175826374043
2428	 0.141137764606182
2429	 0.140684723410686
2430	 0.140429600509059
2431	 0.140501942343422
2432	 0.140123883444919
2433	 0.139579586605015
2434	 0.138851184286593
2435	 0.137527512134911
2436	 0.13668200367414
2437	 0.136214469008466
2438	 0.136270748510029
2439	 0.135876243339505
2440	 0.135461871513697
2441	 0.135220195649331
2442	 0.134659938387131
2443	 0.133981135581632
2444	 0.134212343202033
2445	 0.134466250597289
2446	 0.13474556403073
2447	 0.135305288087346
2448	 0.135082464256628
2449	 0.133990709074433
2450	 0.133134356101843
2451	 0.132645217405959
2452	 0.132011510212345
2453	 0.131753157618078
2454	 0.131555137001541
2455	 0.130674365725906
2456	 0.130218919633328
2457	 0.130711838448883
2458	 0.1305324432088
2459	 0.129909290846766
2460	 0.129057184232214
2461	 0.127914862092079
2462	 0.127764973093576
2463	 0.127723398503956
2464	 0.127646261936782
2465	 0.127917053159502
2466	 0.127069252074552
2467	 0.126742051988493
2468	 0.127068508151057
2469	 0.126488188615585
2470	 0.126891017982304
2471	 0.126721414908857
2472	 0.125616661079108
2473	 0.124791103814595
2474	 0.122845258534409
2475	 0.121679688890693
2476	 0.12170299535786
2477	 0.121304040560182
2478	 0.121181954882596
2479	 0.119852302613913
2480	 0.12050797607038
2481	 0.121935777515592
2482	 0.121679055255324
2483	 0.122271608781475
2484	 0.121567514433671
2485	 0.119566436426526
2486	 0.119461623561742
2487	 0.119470737111385
2488	 0.119701465616934
2489	 0.119784933500711
2490	 0.119100534563149
2491	 0.118222449698565
2492	 0.116947108729853
2493	 0.116341897677863
2494	 0.116257161464675
2495	 0.117337512883513
2496	 0.118624891368625
2497	 0.119466124656178
2498	 0.119811105308153
2499	 0.119509706114346
2500	 0.119007990533187
