Wavelength	signature0011.asd
350	 6.99096905900125E-02
351	 0.075285912049219
352	 6.33911664113586E-02
353	 5.29445464483585E-02
354	 0.067539169745851
355	 6.37574300431859E-02
356	 0.064099065529232
357	 6.87167250022676E-02
358	 6.17145495568386E-02
359	 6.75470215790203E-02
360	 7.16448265864153E-02
361	 6.75782813066779E-02
362	 6.52665465227218E-02
363	 6.71695441091447E-02
364	 6.80206571163377E-02
365	 6.51297548660402E-02
366	 6.61858580994968E-02
367	 6.63770865944192E-02
368	 6.67369270675266E-02
369	 6.89735758415201E-02
370	 6.91420937347999E-02
371	 6.86721286539307E-02
372	 6.84382791195731E-02
373	 6.88276777768129E-02
374	 7.06665695067205E-02
375	 7.07347540426241E-02
376	 6.85046796775289E-02
377	 6.69046272540399E-02
378	 6.79036440157103E-02
379	 6.98986996352773E-02
380	 0.071168210060354
381	 7.14178973156081E-02
382	 0.07228488691926
383	 7.23221308231662E-02
384	 7.05370086636971E-02
385	 7.15409533547708E-02
386	 7.18460276001478E-02
387	 7.12323424592544E-02
388	 7.11941987428064E-02
389	 6.95130490539686E-02
390	 6.98512351800943E-02
391	 0.072704393792544
392	 7.46926582913288E-02
393	 7.45706398585176E-02
394	 7.53701929759629E-02
395	 7.77038701427127E-02
396	 0.075181935729169
397	 7.38338774955554E-02
398	 7.49302330975889E-02
399	 7.70719892991631E-02
400	 7.49365704385571E-02
401	 7.43670927869592E-02
402	 7.61649562294066E-02
403	 7.74932848873396E-02
404	 7.58743633897308E-02
405	 7.47589596393235E-02
406	 7.52521140747185E-02
407	 7.47976660221204E-02
408	 7.50897108633109E-02
409	 7.62581481713582E-02
410	 7.76283665979537E-02
411	 7.74309050818418E-02
412	 7.63924570007808E-02
413	 7.66550496601311E-02
414	 7.94707720822283E-02
415	 7.89832793207444E-02
416	 7.80641628715241E-02
417	 7.82160119860301E-02
418	 7.91763344725931E-02
419	 7.89650094718503E-02
420	 7.85808796757227E-02
421	 7.88632218029058E-02
422	 7.96578934008717E-02
423	 7.90787687877343E-02
424	 0.078930116726536
425	 0.080650571577586
426	 8.03326369496679E-02
427	 8.02719717524313E-02
428	 8.05700396434119E-02
429	 8.02084176639117E-02
430	 8.15039236924045E-02
431	 8.22850572791923E-02
432	 8.18426517892458E-02
433	 8.19562539108282E-02
434	 8.18946964333688E-02
435	 8.18195846578643E-02
436	 8.19423076472049E-02
437	 8.20469563076285E-02
438	 8.26238399591221E-02
439	 8.30822631838775E-02
440	 8.26212843203779E-02
441	 8.25645738202423E-02
442	 8.31835805677545E-02
443	 0.083943335450943
444	 8.36448441428894E-02
445	 8.39702818294019E-02
446	 8.40095533737978E-02
447	 8.34115408634587E-02
448	 8.45157419386989E-02
449	 8.53596095007375E-02
450	 8.54954694673245E-02
451	 8.51601654372047E-02
452	 8.46130198882838E-02
453	 8.50651494302281E-02
454	 8.62026065550827E-02
455	 8.63453333972007E-02
456	 8.60392542350142E-02
457	 8.61918225764348E-02
458	 8.69773976531313E-02
459	 8.69078619752642E-02
460	 8.64896759175679E-02
461	 8.64390277828214E-02
462	 8.72272707475234E-02
463	 8.77933035379013E-02
464	 8.75731660876023E-02
465	 0.086994532433812
466	 8.72122080657934E-02
467	 8.78649873314887E-02
468	 8.82790182802064E-02
469	 8.81859564294699E-02
470	 8.81414625914155E-02
471	 0.088469190341468
472	 8.86344557747028E-02
473	 8.82126535942816E-02
474	 8.86679547631358E-02
475	 8.88003569268095E-02
476	 8.87040736196619E-02
477	 8.93811556898021E-02
478	 8.92120547187031E-02
479	 8.90071406165879E-02
480	 8.93300938509538E-02
481	 8.96664435868064E-02
482	 9.00180781471603E-02
483	 0.090217511861034
484	 9.01785240452621E-02
485	 9.02574372852288E-02
486	 9.05387976030679E-02
487	 9.08093382144335E-02
488	 0.090714671632238
489	 9.09049642928782E-02
490	 9.13147676364125E-02
491	 0.09173155346128
492	 9.18896378569724E-02
493	 9.18854663033769E-02
494	 9.19860807437476E-02
495	 9.23548305460069E-02
496	 9.24945836204893E-02
497	 9.24535986042459E-02
498	 9.25236403336089E-02
499	 0.093086310513937
500	 9.34609405853021E-02
501	 9.35251392843433E-02
502	 9.34607727973253E-02
503	 0.093837744900652
504	 9.42781618880106E-02
505	 9.46100106257339E-02
506	 9.47554376365902E-02
507	 9.46951960751546E-02
508	 0.095067381745546
509	 9.56487240681567E-02
510	 9.55847427612909E-02
511	 9.58905615043643E-02
512	 9.61999652853172E-02
513	 9.62711700638422E-02
514	 9.65799386451261E-02
515	 9.68779956059259E-02
516	 9.70355605423939E-02
517	 9.70628267667226E-02
518	 9.74793295703519E-02
519	 9.77934795678031E-02
520	 9.78952130511827E-02
521	 9.80733745945359E-02
522	 9.83574611378679E-02
523	 9.85141764258846E-02
524	 9.84911493783194E-02
525	 9.87883371059431E-02
526	 9.89089965205703E-02
527	 9.90796695077609E-02
528	 9.96412453483466E-02
529	 9.97978023539984E-02
530	 9.99602179650019E-02
531	 0.100257018184118
532	 0.100433274879677
533	 0.100625105940687
534	 0.100870018186526
535	 0.101143160387435
536	 0.101296706693815
537	 0.101531590971953
538	 0.101807114098406
539	 0.101990737365114
540	 0.102201077049212
541	 0.102359391481838
542	 0.102502931587244
543	 0.102829484367648
544	 0.103016959366465
545	 0.103156125717496
546	 0.103371865067408
547	 0.103549399792414
548	 0.103813215848587
549	 0.104096796446934
550	 0.104262031165009
551	 0.104637410293984
552	 0.105020327589016
553	 0.105275991208889
554	 0.105468406103322
555	 0.105742173846752
556	 0.106049521669286
557	 0.106286850899613
558	 0.106364870027918
559	 0.106661224613415
560	 0.10706578920679
561	 0.107139451116614
562	 0.10735041929056
563	 0.107665302776887
564	 0.107958847127663
565	 0.108060288146478
566	 0.108293117240993
567	 0.108655307006616
568	 0.109007246779186
569	 0.109181865975563
570	 0.109335620143012
571	 0.109590483197453
572	 0.109997737797631
573	 0.110252138747051
574	 0.110447852622441
575	 0.110698636170126
576	 0.110958038334218
577	 0.111212140290327
578	 0.111443985452192
579	 0.11165193266201
580	 0.111941274734839
581	 0.112146927906065
582	 0.112277838649716
583	 0.112564956026161
584	 0.112792184021511
585	 0.113017811315203
586	 0.113270786828664
587	 0.113274848972638
588	 0.113466070445613
589	 0.113743618576248
590	 0.113769084498559
591	 0.113923088193281
592	 0.114142304747393
593	 0.114348632448715
594	 0.114508555349538
595	 0.114799011859726
596	 0.115055964752082
597	 0.115137154130287
598	 0.115378653781394
599	 0.115604040280682
600	 0.115760593610592
601	 0.115898348367112
602	 0.116107948961747
603	 0.116284913092952
604	 0.116379525315527
605	 0.116487553453525
606	 0.116657898328185
607	 0.1168554600937
608	 0.117015288191135
609	 0.117096073916499
610	 0.117238477103651
611	 0.117479132181806
612	 0.117743419950691
613	 0.117883488672728
614	 0.117923625831483
615	 0.11794898851758
616	 0.11809273369101
617	 0.118330835158262
618	 0.118566475806631
619	 0.118704123636725
620	 0.118871113907284
621	 0.119068161921453
622	 0.119263398177443
623	 0.119403498730892
624	 0.119586748930542
625	 0.119736089224416
626	 0.11980533484093
627	 0.119932610684845
628	 0.1201681553344
629	 0.120382161726566
630	 0.120408673546134
631	 0.120584201461884
632	 0.120797804703012
633	 0.1209772221962
634	 0.12116255906258
635	 0.121309528260688
636	 0.121452236177525
637	 0.121627635958713
638	 0.121811481405656
639	 0.121989090114483
640	 0.122177872235264
641	 0.122403141511426
642	 0.122557851026795
643	 0.12275034637652
644	 0.123021895082295
645	 0.12327140660417
646	 0.123393280810453
647	 0.123476780930781
648	 0.123640915026393
649	 0.123850149050842
650	 0.124064777038812
651	 0.124250758146939
652	 0.124386659155241
653	 0.124502409316076
654	 0.124703999648443
655	 0.124982607431171
656	 0.125094211833564
657	 0.125219293907847
658	 0.125408842232082
659	 0.125635796000058
660	 0.125709397997164
661	 0.125898879858428
662	 0.126180968462586
663	 0.126286460439498
664	 0.1264304042983
665	 0.126673375265293
666	 0.12697313630108
667	 0.127122736441478
668	 0.127285009917228
669	 0.127462957320766
670	 0.127620419451251
671	 0.127835081722756
672	 0.128026033612954
673	 0.128177222204921
674	 0.12833995516008
675	 0.1284551849001
676	 0.128604917529131
677	 0.128805667604671
678	 0.128840557373188
679	 0.129023218590164
680	 0.129280058587914
681	 0.129419649683283
682	 0.129555193407559
683	 0.12972238830136
684	 0.129918600185499
685	 0.130105476791141
686	 0.130248266655469
687	 0.130364940480662
688	 0.130484158644775
689	 0.130620125722925
690	 0.130858302487456
691	 0.131106987725533
692	 0.131236950707417
693	 0.131390996341541
694	 0.131576458995068
695	 0.131747633622462
696	 0.131821490312508
697	 0.131930447233162
698	 0.132088530390238
699	 0.132269391517128
700	 0.132419925518332
701	 0.132509605460235
702	 0.132606108417731
703	 0.132790649632259
704	 0.132947072916136
705	 0.133084985063908
706	 0.133212740862671
707	 0.133329828041562
708	 0.133480374304684
709	 0.133601998596473
710	 0.133671076336204
711	 0.13380870231624
712	 0.133948340957275
713	 0.134057770860491
714	 0.134142147699679
715	 0.134345084665849
716	 0.134483563732908
717	 0.134562926957912
718	 0.13477650347699
719	 0.134923742499605
720	 0.135014889337542
721	 0.135116004058878
722	 0.135338994742351
723	 0.135506132275701
724	 0.135593724512846
725	 0.135654152711514
726	 0.135795949735234
727	 0.135913767407984
728	 0.135995692871255
729	 0.136118115156695
730	 0.136262141289665
731	 0.136400124826087
732	 0.136510473520183
733	 0.136584268882128
734	 0.136682151487526
735	 0.136793219123188
736	 0.13689251559503
737	 0.137017619263028
738	 0.137077200986723
739	 0.137114920862053
740	 0.137258030029276
741	 0.137385127572284
742	 0.137508168935229
743	 0.13762903739421
744	 0.13770517665339
745	 0.137816419243731
746	 0.137946171251928
747	 0.138047589587153
748	 0.138062920204763
749	 0.138130126557941
750	 0.138265394764748
751	 0.138402126681941
752	 0.138456995105777
753	 0.138509545062111
754	 0.138601961256858
755	 0.138709303967595
756	 0.13884558839432
757	 0.138961350169315
758	 0.139028730467734
759	 0.139107568591506
760	 0.139170084278969
761	 0.139230541179223
762	 0.139306749618027
763	 0.139338208782756
764	 0.139421130622224
765	 0.139535133691145
766	 0.139567122743989
767	 0.139687607099634
768	 0.139762897112127
769	 0.139748472505224
770	 0.139836654617501
771	 0.139941632304853
772	 0.139996241571103
773	 0.139987590388432
774	 0.14006938593908
775	 0.140226344245656
776	 0.140344345769828
777	 0.140304546773622
778	 0.140380799881765
779	 0.140434852699161
780	 0.140447849550789
781	 0.140568550077088
782	 0.14058469162288
783	 0.140612353020072
784	 0.140729381242126
785	 0.140785657898254
786	 0.140772123986506
787	 0.140791959310654
788	 0.140924725045438
789	 0.140958395262768
790	 0.140987932029948
791	 0.141060328138689
792	 0.14116562766396
793	 0.141161085833269
794	 0.141207581976193
795	 0.141305479090038
796	 0.141223687977473
797	 0.141347323266583
798	 0.141461279772567
799	 0.141391139728244
800	 0.141378384649666
801	 0.141341872991869
802	 0.141373003051542
803	 0.14153532707368
804	 0.141535809168255
805	 0.141464538441555
806	 0.141461360724392
807	 0.141624486983115
808	 0.141506144241183
809	 0.141478502669417
810	 0.141645283128787
811	 0.141688141273319
812	 0.141683109175063
813	 0.141660031960659
814	 0.14165853431655
815	 0.141751120185509
816	 0.141797702978581
817	 0.141808124576482
818	 0.141829692587612
819	 0.141845370674399
820	 0.141854981183358
821	 0.141854192692279
822	 0.141843988218063
823	 0.141868934047139
824	 0.141900026468024
825	 0.141958033241908
826	 0.142094116621475
827	 0.142030723823094
828	 0.142028494621855
829	 0.142158391824052
830	 0.14206196884777
831	 0.141993700147457
832	 0.142030060138091
833	 0.142129009836182
834	 0.142049528161762
835	 0.142041798683806
836	 0.142095532037292
837	 0.142107372403338
838	 0.142032646444047
839	 0.142017880209643
840	 0.14204969084166
841	 0.142032711848269
842	 0.142103843125475
843	 0.142143848720188
844	 0.14210081562166
845	 0.142026416788563
846	 0.142099218868951
847	 0.142135752750094
848	 0.142063585493925
849	 0.142069198779789
850	 0.142104028130213
851	 0.142065709689054
852	 0.141957036938393
853	 0.14207363562655
854	 0.142098519845386
855	 0.14201504651508
856	 0.141933397321945
857	 0.142021157629169
858	 0.142080063604097
859	 0.142065809461801
860	 0.142036240757184
861	 0.142109165346121
862	 0.142121406554216
863	 0.142066929188333
864	 0.142055001878903
865	 0.14200428827779
866	 0.141896655482988
867	 0.141839493110723
868	 0.142019074678246
869	 0.1419528278495
870	 0.141871524821694
871	 0.141926943210024
872	 0.141963959074675
873	 0.141868060387994
874	 0.141871191171032
875	 0.142028772863402
876	 0.141842985291008
877	 0.141865757434865
878	 0.141959629938379
879	 0.141900975570837
880	 0.141857051220735
881	 0.141774516907264
882	 0.141761801763014
883	 0.14188275541635
884	 0.141777939413576
885	 0.141777913306073
886	 0.14185984131577
887	 0.141845302862729
888	 0.141865434770585
889	 0.141784858924658
890	 0.141706431132488
891	 0.141823487919855
892	 0.141688288468109
893	 0.141698330935486
894	 0.14187445838205
895	 0.141863112041249
896	 0.141740313620071
897	 0.14177092413772
898	 0.141921972366642
899	 0.141831813275362
900	 0.141666971301056
901	 0.141661774296308
902	 0.141810820613686
903	 0.141787784905969
904	 0.141888133971604
905	 0.141948009797681
906	 0.141855237433008
907	 0.141734358584438
908	 0.141686119054932
909	 0.141713847209838
910	 0.14175911393272
911	 0.141708172388921
912	 0.141700268723666
913	 0.141702642812819
914	 0.141695712789004
915	 0.141807654461766
916	 0.141866333919949
917	 0.14186411917942
918	 0.141843790762393
919	 0.141824199633939
920	 0.141904467113426
921	 0.141906768739345
922	 0.1417136150267
923	 0.141680830844149
924	 0.141834461779992
925	 0.141876009144865
926	 0.141602553013856
927	 0.141569121650057
928	 0.141660734548775
929	 0.141704803531549
930	 0.141613707610538
931	 0.141728269079703
932	 0.141691916387565
933	 0.141541973407323
934	 0.141520558142587
935	 0.14194308284559
936	 0.141889758862515
937	 0.141571037513387
938	 0.141563854480204
939	 0.14148527113419
940	 0.141569297589308
941	 0.141732893631649
942	 0.141789203246768
943	 0.141856703902155
944	 0.141547437213154
945	 0.141193950062009
946	 0.141284395490173
947	 0.141406008987967
948	 0.141393377958826
949	 0.141353631055862
950	 0.141440004261383
951	 0.14140044871573
952	 0.141324491645012
953	 0.141343170567208
954	 0.141479241069165
955	 0.141254936812043
956	 0.141503767910791
957	 0.141766285700006
958	 0.141413213933471
959	 0.141447652583497
960	 0.141408909634384
961	 0.141460896806892
962	 0.141742570022596
963	 0.141405199814684
964	 0.141392427008467
965	 0.141726545736272
966	 0.141961109536951
967	 0.141372067405972
968	 0.141290486070902
969	 0.141527829774701
970	 0.141569706152192
971	 0.141534220203937
972	 0.141569444903585
973	 0.141743063760609
974	 0.141950575649971
975	 0.141808418151008
976	 0.14177547813914
977	 0.141921383790504
978	 0.142074661317291
979	 0.141869215476188
980	 0.141858794710578
981	 0.141996637047747
982	 0.142164882386655
983	 0.142354897037394
984	 0.142257349499932
985	 0.142248370416007
986	 0.142345558619145
987	 0.142042575286282
988	 0.142028466122899
989	 0.142016971001561
990	 0.141896692691511
991	 0.141858198404196
992	 0.141774042386382
993	 0.141938365765226
994	 0.142224127534824
995	 0.142257333250561
996	 0.14248399359856
997	 0.142193960580748
998	 0.142012766799338
999	 0.142795202856675
1000	 0.14263399500087
1001	 0.145149371307605
1002	 0.145257346469325
1003	 0.145384534280342
1004	 0.145242515893959
1005	 0.145130110877355
1006	 0.145126193995882
1007	 0.14501287985185
1008	 0.144951504341257
1009	 0.14501995101613
1010	 0.145250810150616
1011	 0.145333388417263
1012	 0.14525292814238
1013	 0.145298171196327
1014	 0.145295809223675
1015	 0.145152785653852
1016	 0.145206928957837
1017	 0.145349855197142
1018	 0.14526209096349
1019	 0.145181193496413
1020	 0.14527576270719
1021	 0.145267454985182
1022	 0.145170202241552
1023	 0.145201289861107
1024	 0.145207147376558
1025	 0.145207354200446
1026	 0.14515862345439
1027	 0.145174287608832
1028	 0.14520020791245
1029	 0.145228869759469
1030	 0.145254439409825
1031	 0.145224604460843
1032	 0.145168452241762
1033	 0.145118757085571
1034	 0.145132831300031
1035	 0.145276544549768
1036	 0.145358295306621
1037	 0.145357822337685
1038	 0.145366228889684
1039	 0.145353891550291
1040	 0.145214473137121
1041	 0.145134373608379
1042	 0.145152419096545
1043	 0.145093065163704
1044	 0.145134621021095
1045	 0.145188472340594
1046	 0.145115009284871
1047	 0.145080469701516
1048	 0.145022763867483
1049	 0.14495194046624
1050	 0.145056797384324
1051	 0.14518605135861
1052	 0.145217477635753
1053	 0.145257582236485
1054	 0.145322863065607
1055	 0.145273755261938
1056	 0.145193718666292
1057	 0.145264922079799
1058	 0.145317095432663
1059	 0.145333888444293
1060	 0.145361260113529
1061	 0.145367473494606
1062	 0.145313663379908
1063	 0.145290390639586
1064	 0.145391635115727
1065	 0.145464023499476
1066	 0.14548593679937
1067	 0.145494794972845
1068	 0.145508644145925
1069	 0.145420210304797
1070	 0.145447439449572
1071	 0.145533815964556
1072	 0.145690303401221
1073	 0.145735279220611
1074	 0.145822553520022
1075	 0.145900485639643
1076	 0.145839433711296
1077	 0.145894785989515
1078	 0.145962227645817
1079	 0.145968783185939
1080	 0.146034516513581
1081	 0.146060539369877
1082	 0.146011952466144
1083	 0.145991728411552
1084	 0.145914542147399
1085	 0.145925818815911
1086	 0.146045009513737
1087	 0.146069335539541
1088	 0.146075463563448
1089	 0.146088580840578
1090	 0.146064145040582
1091	 0.14597589615308
1092	 0.145966745408274
1093	 0.145978189648188
1094	 0.145980055697497
1095	 0.14601896159327
1096	 0.146081988094324
1097	 0.146108065103979
1098	 0.146116252715831
1099	 0.146070873857051
1100	 0.146114062170226
1101	 0.146212996244769
1102	 0.146251669503756
1103	 0.14632099535128
1104	 0.146348926234897
1105	 0.146296978737267
1106	 0.146237438456485
1107	 0.146254498175007
1108	 0.146254834433092
1109	 0.146212928446439
1110	 0.146172157971561
1111	 0.146127910680237
1112	 0.146091668296162
1113	 0.146053111036021
1114	 0.146023806777759
1115	 0.146019492007893
1116	 0.14602387630717
1117	 0.146013757588996
1118	 0.146047699479888
1119	 0.146022945494605
1120	 0.145948202593901
1121	 0.145878894526141
1122	 0.145803513214192
1123	 0.145819133485012
1124	 0.145848311575902
1125	 0.145855746294037
1126	 0.14591022473949
1127	 0.145896314829709
1128	 0.145872297506478
1129	 0.145885167259157
1130	 0.145877998343986
1131	 0.145857646442103
1132	 0.145856574304717
1133	 0.145863556275253
1134	 0.145844975293915
1135	 0.145818676684727
1136	 0.145794614815668
1137	 0.145759458999851
1138	 0.145738499275273
1139	 0.145718931545407
1140	 0.14570601506844
1141	 0.145732499117919
1142	 0.145738153713037
1143	 0.14576052183509
1144	 0.145741537637646
1145	 0.145710510938374
1146	 0.145645530582887
1147	 0.14559145855783
1148	 0.145534814598882
1149	 0.145473680757109
1150	 0.145387905406179
1151	 0.145324865459076
1152	 0.14526790594081
1153	 0.145222898105322
1154	 0.145206904620016
1155	 0.145161353194913
1156	 0.145103633583681
1157	 0.145035045589892
1158	 0.145005415004751
1159	 0.145018907912684
1160	 0.14507455628293
1161	 0.145133130200006
1162	 0.145150856619013
1163	 0.145158843217516
1164	 0.145134531333371
1165	 0.145043188908699
1166	 0.145032616488044
1167	 0.145035955566299
1168	 0.145043376596347
1169	 0.145109893084335
1170	 0.145135752010564
1171	 0.14511423181457
1172	 0.14513521910223
1173	 0.14517669440911
1174	 0.145216980434215
1175	 0.145301795488826
1176	 0.1453358670145
1177	 0.145335977794574
1178	 0.145340619159941
1179	 0.145368507718274
1180	 0.145378872950993
1181	 0.145374090747336
1182	 0.145378017492328
1183	 0.145372766821415
1184	 0.145325565345334
1185	 0.14531380075462
1186	 0.14532813870838
1187	 0.145333360818513
1188	 0.145343032246086
1189	 0.145340729406162
1190	 0.145322531028056
1191	 0.145329869835
1192	 0.145359037384537
1193	 0.145364233497047
1194	 0.145378762879896
1195	 0.145382914931429
1196	 0.145362008661625
1197	 0.145324557322211
1198	 0.14531544584808
1199	 0.145320671813403
1200	 0.145331496049954
1201	 0.145345946995783
1202	 0.145376415883911
1203	 0.145444850272586
1204	 0.145456125006568
1205	 0.145451418872549
1206	 0.145448483519021
1207	 0.145387047457838
1208	 0.145385944238254
1209	 0.145457105096824
1210	 0.14546183734968
1211	 0.145436495586288
1212	 0.145435818417024
1213	 0.145423242717243
1214	 0.145392124164248
1215	 0.145391269087141
1216	 0.145403915482709
1217	 0.145389780119799
1218	 0.145335375313706
1219	 0.145329820193614
1220	 0.145353070653256
1221	 0.145345351476264
1222	 0.145334924991611
1223	 0.145336887631667
1224	 0.145317694434202
1225	 0.145323411994831
1226	 0.145380377599012
1227	 0.145387078919454
1228	 0.145380445654451
1229	 0.145361415656726
1230	 0.145258331775566
1231	 0.145252282837073
1232	 0.145327432198476
1233	 0.14534760958558
1234	 0.145398503788158
1235	 0.145438673710848
1236	 0.145454022072072
1237	 0.145406604275152
1238	 0.14540077047157
1239	 0.145418714181196
1240	 0.145418546371319
1241	 0.14538631100225
1242	 0.145402557668462
1243	 0.145463713809336
1244	 0.145476443423045
1245	 0.145497104845565
1246	 0.145496614195235
1247	 0.145437222107671
1248	 0.14542180783542
1249	 0.145416516397947
1250	 0.14542683467882
1251	 0.14548440411089
1252	 0.145500093274098
1253	 0.145492137933033
1254	 0.14550327360847
1255	 0.145512627192832
1256	 0.145503085048443
1257	 0.145499793165867
1258	 0.145509439271115
1259	 0.145525154384434
1260	 0.145535098033247
1261	 0.145538029342609
1262	 0.145562895237728
1263	 0.145564154568805
1264	 0.145536155581579
1265	 0.145517354753123
1266	 0.145495175520492
1267	 0.14548557182308
1268	 0.145461631992111
1269	 0.145465411915354
1270	 0.145514451307566
1271	 0.14552881564115
1272	 0.145537769909256
1273	 0.14554498122179
1274	 0.145522950558305
1275	 0.145521688170895
1276	 0.14555249781942
1277	 0.145555680162446
1278	 0.14554974250083
1279	 0.145535296346308
1280	 0.145534499854558
1281	 0.145516915161559
1282	 0.14552432731328
1283	 0.145579022882647
1284	 0.145563770278026
1285	 0.145519600651514
1286	 0.145478410835305
1287	 0.145373092303459
1288	 0.1453439715365
1289	 0.145363362947681
1290	 0.145363850181568
1291	 0.145394896830566
1292	 0.145408334661835
1293	 0.14541600696598
1294	 0.145403673978019
1295	 0.145392548716882
1296	 0.145362306438269
1297	 0.145266525279993
1298	 0.145227054955834
1299	 0.145225870505921
1300	 0.145199301030962
1301	 0.145187008727343
1302	 0.145211576803709
1303	 0.145195529992644
1304	 0.145145606186699
1305	 0.145130592113891
1306	 0.145132666263708
1307	 0.145113408941824
1308	 0.145096675348762
1309	 0.145073271485008
1310	 0.145022122283628
1311	 0.145001938923885
1312	 0.145014152955477
1313	 0.144988490801869
1314	 0.144966362323614
1315	 0.144920990204005
1316	 0.144834718280956
1317	 0.144771364079858
1318	 0.144695039943757
1319	 0.144640436026361
1320	 0.144617729027708
1321	 0.144566679219055
1322	 0.144517077550145
1323	 0.144464927048487
1324	 0.144386245234014
1325	 0.144319862266276
1326	 0.144281110331449
1327	 0.144214626882323
1328	 0.144156696116866
1329	 0.144099198144165
1330	 0.144042945324259
1331	 0.143979178183748
1332	 0.143931581350382
1333	 0.143903442523721
1334	 0.143848549918652
1335	 0.143788906920274
1336	 0.143728247421399
1337	 0.14364524531094
1338	 0.14358441918807
1339	 0.143540377719505
1340	 0.14348470278507
1341	 0.143432965897534
1342	 0.143373921279676
1343	 0.143311326581195
1344	 0.143242340728283
1345	 0.143153480121169
1346	 0.14308781707326
1347	 0.143027428100654
1348	 0.142972797162635
1349	 0.142963655081929
1350	 0.142903714618621
1351	 0.142818698097692
1352	 0.14274406169304
1353	 0.142659071534976
1354	 0.142590771660815
1355	 0.142527662582535
1356	 0.142475887166258
1357	 0.142439111857745
1358	 0.142426367075895
1359	 0.142378267490637
1360	 0.142321734413112
1361	 0.142283591507854
1362	 0.142212684749943
1363	 0.142192139454111
1364	 0.142230065217774
1365	 0.142235838074067
1366	 0.142266197200547
1367	 0.142237733207364
1368	 0.142194161002629
1369	 0.142108290572165
1370	 0.141935668238488
1371	 0.141837044379759
1372	 0.141756259811977
1373	 0.141661242341278
1374	 0.14160869244664
1375	 0.141518197500624
1376	 0.141399114980249
1377	 0.141265818048558
1378	 0.141113921583161
1379	 0.140939345388948
1380	 0.140705113714515
1381	 0.140486613865306
1382	 0.140265609544369
1383	 0.140003220950058
1384	 0.139744131733881
1385	 0.139471676281742
1386	 0.139193596976317
1387	 0.138922332962982
1388	 0.138610611109277
1389	 0.138286073365704
1390	 0.137933144490053
1391	 0.137539353650071
1392	 0.137145022618109
1393	 0.136734874624389
1394	 0.136316512919219
1395	 0.135895075183231
1396	 0.135436141005337
1397	 0.134958666456213
1398	 0.134460030363971
1399	 0.133918323640277
1400	 0.133388149243357
1401	 0.132855778982287
1402	 0.132306846788521
1403	 0.131746354214026
1404	 0.131180826696555
1405	 0.130586501390969
1406	 0.130009634032156
1407	 0.129428166657303
1408	 0.128864725535288
1409	 0.128318206651351
1410	 0.127796325267681
1411	 0.12728759374275
1412	 0.126819376735082
1413	 0.126405228517299
1414	 0.126008526111774
1415	 0.125627915788938
1416	 0.125297906660727
1417	 0.124996506472234
1418	 0.124699234742519
1419	 0.124476485253628
1420	 0.124320911018136
1421	 0.124174791730662
1422	 0.124073675964908
1423	 0.123981991040363
1424	 0.123918859831637
1425	 0.123856707399239
1426	 0.123804630595522
1427	 0.123777051416061
1428	 0.123722564573806
1429	 0.123767173420228
1430	 0.123883655047422
1431	 0.124010567642106
1432	 0.124263110985816
1433	 0.124407023403635
1434	 0.124480595962549
1435	 0.12459727052778
1436	 0.124652452270178
1437	 0.124784323940808
1438	 0.125014740450989
1439	 0.125199101916192
1440	 0.12539097384448
1441	 0.12558027341946
1442	 0.125752140005489
1443	 0.125923978218432
1444	 0.12609304771829
1445	 0.126279184424341
1446	 0.126447258006968
1447	 0.126634379379167
1448	 0.126821820940605
1449	 0.126982882912047
1450	 0.127153282167506
1451	 0.127306565332943
1452	 0.127461056312242
1453	 0.127614108863461
1454	 0.127725256197248
1455	 0.127817543408709
1456	 0.127916325862785
1457	 0.128004621241288
1458	 0.128088506805224
1459	 0.128171624223639
1460	 0.128252378316084
1461	 0.128317711842563
1462	 0.128387251196593
1463	 0.12844916502884
1464	 0.128541246092945
1465	 0.128657082732719
1466	 0.128747164807732
1467	 0.128843565491428
1468	 0.128939861337402
1469	 0.128992378159297
1470	 0.129107567545772
1471	 0.12925283813553
1472	 0.129425813497463
1473	 0.129641650417638
1474	 0.129851329861878
1475	 0.130089430677687
1476	 0.130319277302009
1477	 0.13055079143763
1478	 0.13077686173013
1479	 0.131010993890725
1480	 0.131233166931216
1481	 0.131444919529126
1482	 0.131663146258184
1483	 0.131864637708298
1484	 0.132083735160409
1485	 0.132338859797632
1486	 0.132547742479828
1487	 0.132727521747881
1488	 0.13293425020824
1489	 0.133117230425778
1490	 0.133317204868762
1491	 0.13356466105455
1492	 0.133787222363116
1493	 0.133964380545611
1494	 0.134140241740982
1495	 0.134291784692764
1496	 0.134454119493732
1497	 0.134646753420022
1498	 0.134835652626837
1499	 0.135013141507004
1500	 0.135182545221079
1501	 0.135345704466927
1502	 0.135498090216542
1503	 0.135642137887193
1504	 0.135785724293793
1505	 0.135929191632864
1506	 0.136049893568954
1507	 0.136171538522136
1508	 0.136289566041154
1509	 0.136417756496538
1510	 0.136536530865584
1511	 0.136678504473059
1512	 0.136855808236479
1513	 0.13698008219711
1514	 0.137084879562607
1515	 0.137190044434828
1516	 0.137263838820222
1517	 0.137368715778459
1518	 0.137489451177704
1519	 0.137610620592302
1520	 0.137741196281761
1521	 0.137858672653783
1522	 0.137980220958757
1523	 0.138091891724362
1524	 0.138188984277053
1525	 0.138292466343996
1526	 0.138391095547235
1527	 0.138496713451866
1528	 0.138616267510754
1529	 0.138711164792718
1530	 0.138803264590692
1531	 0.138888292644302
1532	 0.138938916479083
1533	 0.139019852558788
1534	 0.139129980418748
1535	 0.13920896696593
1536	 0.139278929538506
1537	 0.13935318838747
1538	 0.139417666301287
1539	 0.139469495617089
1540	 0.139511816810228
1541	 0.139572682035828
1542	 0.139618748387208
1543	 0.139685473404165
1544	 0.139798757751474
1545	 0.139875629380674
1546	 0.139944277287871
1547	 0.139997733316364
1548	 0.14000387820785
1549	 0.140054306661333
1550	 0.140126799857567
1551	 0.140189319608409
1552	 0.140289031776481
1553	 0.140353892931528
1554	 0.140369315722883
1555	 0.140416621598063
1556	 0.14046603684761
1557	 0.140522701100616
1558	 0.140614760332202
1559	 0.14067901759919
1560	 0.140712392615994
1561	 0.140772336674226
1562	 0.14083795997747
1563	 0.1409047371278
1564	 0.140995007349965
1565	 0.141074852783108
1566	 0.141154253666884
1567	 0.141212894512019
1568	 0.141269961553459
1569	 0.141309251961306
1570	 0.141291969738822
1571	 0.14132146062928
1572	 0.141371602835165
1573	 0.141415534264556
1574	 0.141484101220732
1575	 0.141558255112206
1576	 0.141584946774979
1577	 0.141610937291537
1578	 0.141658868254004
1579	 0.141726471595689
1580	 0.141762127557988
1581	 0.141806242209743
1582	 0.141859808524127
1583	 0.141862648059123
1584	 0.141889887897768
1585	 0.141926487322534
1586	 0.141938445626956
1587	 0.141967756005074
1588	 0.142019606198571
1589	 0.142090327364164
1590	 0.142128427235953
1591	 0.142148664073171
1592	 0.14219462939698
1593	 0.142211129110666
1594	 0.142254763585764
1595	 0.142319679327041
1596	 0.142335111627228
1597	 0.142391970496808
1598	 0.142474708856358
1599	 0.14251838591393
1600	 0.142557243863233
1601	 0.14260056099772
1602	 0.142647235127905
1603	 0.142680095654135
1604	 0.14271313789212
1605	 0.142756041949875
1606	 0.142773554443734
1607	 0.142812133707042
1608	 0.142882934903853
1609	 0.142941402464283
1610	 0.1429737846402
1611	 0.142993205648424
1612	 0.143031066644189
1613	 0.143083849372296
1614	 0.143111521575565
1615	 0.143188210783036
1616	 0.143312041677259
1617	 0.143362561692243
1618	 0.143430356809888
1619	 0.143553290827253
1620	 0.143527849071665
1621	 0.143389865754841
1622	 0.143388221191316
1623	 0.143358367595824
1624	 0.143401811910622
1625	 0.143563894033055
1626	 0.143603742149294
1627	 0.143598606428603
1628	 0.143595268449662
1629	 0.143613821388976
1630	 0.143640158691146
1631	 0.143683225347534
1632	 0.143752856614772
1633	 0.143796091348153
1634	 0.14384878663903
1635	 0.143930001598989
1636	 0.143959070183591
1637	 0.143979137539276
1638	 0.144001090264738
1639	 0.14402048447345
1640	 0.144060097275325
1641	 0.144110024206811
1642	 0.144180132274523
1643	 0.144232150097444
1644	 0.144294608276485
1645	 0.144339879986193
1646	 0.144341094205348
1647	 0.144369110028944
1648	 0.144414531872
1649	 0.144449322945599
1650	 0.144506779406101
1651	 0.144538394047178
1652	 0.14453935611859
1653	 0.144545254813955
1654	 0.144524086739556
1655	 0.144531894962764
1656	 0.144576363337181
1657	 0.144591422861915
1658	 0.144581930563246
1659	 0.144609112551272
1660	 0.144653352016887
1661	 0.14467714497589
1662	 0.144725154405343
1663	 0.144764582813594
1664	 0.144766618489003
1665	 0.144781112964248
1666	 0.144812121755286
1667	 0.144841232100237
1668	 0.144870917242689
1669	 0.144892073479284
1670	 0.144924269090884
1671	 0.144935085599855
1672	 0.144917525479924
1673	 0.144908345610837
1674	 0.144856880111715
1675	 0.144877847134455
1676	 0.144941537097809
1677	 0.14500907586277
1678	 0.145186880665711
1679	 0.145237853635175
1680	 0.145204883044368
1681	 0.145201511957338
1682	 0.145137126578171
1683	 0.14510199592406
1684	 0.145088730670953
1685	 0.145089083007128
1686	 0.145091396352906
1687	 0.145094776645107
1688	 0.145130119570304
1689	 0.145148298185244
1690	 0.145142597939497
1691	 0.145151749881655
1692	 0.145182527457353
1693	 0.145189843300879
1694	 0.145180660179299
1695	 0.145185336886063
1696	 0.145178605490502
1697	 0.145184256503668
1698	 0.145220171051082
1699	 0.145223369141035
1700	 0.145212415971461
1701	 0.145204049918675
1702	 0.145163011326244
1703	 0.145162989292294
1704	 0.145191024308371
1705	 0.145205408572585
1706	 0.145252641324169
1707	 0.145245179043961
1708	 0.145193345887056
1709	 0.145173360340843
1710	 0.145129942773706
1711	 0.145130303948251
1712	 0.145178914523905
1713	 0.145172250144706
1714	 0.145161217942793
1715	 0.145134954097841
1716	 0.14508496533759
1717	 0.145041888062576
1718	 0.144986348331165
1719	 0.144974206452526
1720	 0.144920589828755
1721	 0.144868701126897
1722	 0.144876638905699
1723	 0.144852172115768
1724	 0.144798765457771
1725	 0.144746214074045
1726	 0.144689371720183
1727	 0.144648201504494
1728	 0.144594484069345
1729	 0.14458922834293
1730	 0.144574520603635
1731	 0.144483264301662
1732	 0.144435979702303
1733	 0.144370605116347
1734	 0.144275349357026
1735	 0.144233104655403
1736	 0.144177855677276
1737	 0.144114060541455
1738	 0.144052356830713
1739	 0.143979025342536
1740	 0.143927131123763
1741	 0.143894564386554
1742	 0.143858348259199
1743	 0.143848688883857
1744	 0.14379634156905
1745	 0.143693342043114
1746	 0.143651198256862
1747	 0.143625555277177
1748	 0.143588359046812
1749	 0.143595039453558
1750	 0.143560579166291
1751	 0.143495706438213
1752	 0.143426633608806
1753	 0.143341813402308
1754	 0.14326309292194
1755	 0.143154928410896
1756	 0.143094394670872
1757	 0.14309395308604
1758	 0.143020063801695
1759	 0.142905437549436
1760	 0.142843720247245
1761	 0.142759399347996
1762	 0.142694945300276
1763	 0.142689223086746
1764	 0.14265067932579
1765	 0.142578093409272
1766	 0.142509292988091
1767	 0.142466964933291
1768	 0.142428642725307
1769	 0.142366523721402
1770	 0.14233116666469
1771	 0.14230692576447
1772	 0.142231971719734
1773	 0.142138247115688
1774	 0.142075632939492
1775	 0.142001516680771
1776	 0.141915395413405
1777	 0.141920461693859
1778	 0.141965100298441
1779	 0.141967534780185
1780	 0.141967835172569
1781	 0.141941119955903
1782	 0.141844044923216
1783	 0.14180403574431
1784	 0.14177419606995
1785	 0.141769369102598
1786	 0.141829870840234
1787	 0.14181691722179
1788	 0.141775011390924
1789	 0.141779740585864
1790	 0.141754300967077
1791	 0.141747770018543
1792	 0.141792657077357
1793	 0.141775891100076
1794	 0.141783596689739
1795	 0.141808193051437
1796	 0.141810422677831
1797	 0.141805045315587
1798	 0.14178828881249
1799	 0.141746542271043
1800	 0.141750409607229
1801	 0.141771226586774
1802	 0.14177601305622
1803	 0.141832038196738
1804	 0.141850811648315
1805	 0.14180924380474
1806	 0.141796906988768
1807	 0.14178266921077
1808	 0.141781618538919
1809	 0.141834345207437
1810	 0.141903827071103
1811	 0.141962960204838
1812	 0.142011302221694
1813	 0.142027653745861
1814	 0.142047709532632
1815	 0.142051382191336
1816	 0.142035466544872
1817	 0.14201607392352
1818	 0.141997932996094
1819	 0.141962482101347
1820	 0.141965296259218
1821	 0.142000189289311
1822	 0.142004226008966
1823	 0.142009777848458
1824	 0.142054403455035
1825	 0.142017371861269
1826	 0.141953932786961
1827	 0.141903162269767
1828	 0.141813594049252
1829	 0.141766580674194
1830	 0.141745394841892
1831	 0.140426631387147
1832	 0.140512854347865
1833	 0.140560910687513
1834	 0.140547257551828
1835	 0.140360036270116
1836	 0.140296323203462
1837	 0.140268049405421
1838	 0.140238591080358
1839	 0.140234097754867
1840	 0.140254755822215
1841	 0.140230482395315
1842	 0.140133731008965
1843	 0.140115055243398
1844	 0.140101444037498
1845	 0.140106109586392
1846	 0.14023167952221
1847	 0.140238484644186
1848	 0.140211685481345
1849	 0.140111321414776
1850	 0.140018737208893
1851	 0.1398699724039
1852	 0.139783918647753
1853	 0.139741899467919
1854	 0.139607436548611
1855	 0.139420935202953
1856	 0.139252313353875
1857	 0.139009257618182
1858	 0.138818940923355
1859	 0.138708552368549
1860	 0.138524461982099
1861	 0.138203051169301
1862	 0.137925029544652
1863	 0.137566566071916
1864	 0.137167506804232
1865	 0.136818805284168
1866	 0.136581723705469
1867	 0.136177156350229
1868	 0.135705408438955
1869	 0.135207466684489
1870	 0.134651226433199
1871	 0.1339867660278
1872	 0.133311785284592
1873	 0.132707933539928
1874	 0.132055077702953
1875	 0.131380464993365
1876	 0.130697276498095
1877	 0.12990804567068
1878	 0.129053524128727
1879	 0.128126958786248
1880	 0.127118374763057
1881	 0.126056752253464
1882	 0.125007530792034
1883	 0.123876937560583
1884	 0.122713147654587
1885	 0.121545603351127
1886	 0.120251187656311
1887	 0.118832532876426
1888	 0.117355841968796
1889	 0.115819258264038
1890	 0.114199270843266
1891	 0.112478440595745
1892	 0.110693507532846
1893	 0.108878068171683
1894	 0.107031157692161
1895	 0.105205651030911
1896	 0.103473288768061
1897	 0.10184359100835
1898	 0.100145910891291
1899	 9.84702636202439E-02
1900	 9.68220081633565E-02
1901	 9.51785801770281E-02
1902	 9.34585570839828E-02
1903	 9.20448757202315E-02
1904	 9.07559148323049E-02
1905	 8.95146654558779E-02
1906	 8.85908188272175E-02
1907	 8.76562745258561E-02
1908	 8.67277215205407E-02
1909	 8.59385561613247E-02
1910	 8.51523188364456E-02
1911	 8.44867980108691E-02
1912	 8.38773782735433E-02
1913	 0.083396879979062
1914	 8.30634926463972E-02
1915	 8.28677293364445E-02
1916	 8.27569261111781E-02
1917	 8.26479459581046E-02
1918	 8.25684908279421E-02
1919	 8.25656492273748E-02
1920	 8.25592981689392E-02
1921	 8.26753425581448E-02
1922	 8.28215754442529E-02
1923	 8.29465636488958E-02
1924	 8.30475724768178E-02
1925	 8.32632574695803E-02
1926	 8.34415420673462E-02
1927	 8.36113059008597E-02
1928	 0.08389177538398
1929	 0.084124887962331
1930	 8.43846468866641E-02
1931	 8.47652169418529E-02
1932	 8.51468593190945E-02
1933	 8.55138550037472E-02
1934	 8.58833155858152E-02
1935	 0.086282112850164
1936	 8.65948564428861E-02
1937	 8.68598587207284E-02
1938	 0.087192923315206
1939	 8.75166209615112E-02
1940	 8.78813632507822E-02
1941	 0.088300507876459
1942	 0.088677147581663
1943	 8.90843052881345E-02
1944	 8.94626989945249E-02
1945	 8.97895110840039E-02
1946	 9.00811664496422E-02
1947	 9.04138116404164E-02
1948	 9.07072865350057E-02
1949	 9.10106575401364E-02
1950	 9.13850844412266E-02
1951	 9.17665124359839E-02
1952	 9.21245462857142E-02
1953	 9.24441993162857E-02
1954	 9.27709942380145E-02
1955	 0.093027404835332
1956	 9.32972095621718E-02
1957	 9.36160812271257E-02
1958	 9.39557666704751E-02
1959	 9.43543718672619E-02
1960	 9.47441520181909E-02
1961	 9.51530058426966E-02
1962	 9.55493141327965E-02
1963	 9.59379037765214E-02
1964	 9.63466528386141E-02
1965	 9.67486349947781E-02
1966	 9.70545300248231E-02
1967	 0.09737659152035
1968	 9.76589236114468E-02
1969	 9.79620069185739E-02
1970	 9.82536482986461E-02
1971	 9.86066520349053E-02
1972	 0.098964685913441
1973	 9.93823807591754E-02
1974	 0.09987992778067
1975	 0.100344921890914
1976	 0.100781883484547
1977	 0.10116186185445
1978	 0.101492419652163
1979	 0.10184374454088
1980	 0.102176689190199
1981	 0.102546793688984
1982	 0.102940662644116
1983	 0.1033275101287
1984	 0.10372603082623
1985	 0.104149476574008
1986	 0.104604203475571
1987	 0.105070157662142
1988	 0.105602426969378
1989	 0.106052137712962
1990	 0.10649658009073
1991	 0.106901349539699
1992	 0.107215892034914
1993	 0.107612938195447
1994	 0.108045171456816
1995	 0.108429130509868
1996	 0.108767207586522
1997	 0.109152623699428
1998	 0.109533351119453
1999	 0.109930402733717
2000	 0.110349636625022
2001	 0.11081919198957
2002	 0.111203508449247
2003	 0.111543162464008
2004	 0.111941358394058
2005	 0.112329030300788
2006	 0.112731508806956
2007	 0.113227207371713
2008	 0.113668699880992
2009	 0.114087216236647
2010	 0.114476789809689
2011	 0.114877042233689
2012	 0.115225096072161
2013	 0.11549974696585
2014	 0.115845246472686
2015	 0.116195441553984
2016	 0.116528437640808
2017	 0.116934014666995
2018	 0.11733003302587
2019	 0.117713575339019
2020	 0.118058506316238
2021	 0.118390213540631
2022	 0.11868543515511
2023	 0.118981043429992
2024	 0.119261644355021
2025	 0.119569523769027
2026	 0.119894878764795
2027	 0.120185333537484
2028	 0.120483566476339
2029	 0.120731276883217
2030	 0.120984939906292
2031	 0.121246916400916
2032	 0.121568513459395
2033	 0.121870982154644
2034	 0.122159011200056
2035	 0.122415063410444
2036	 0.122677688507955
2037	 0.12295915501508
2038	 0.123181147417663
2039	 0.123338317714459
2040	 0.123567279351156
2041	 0.123807364672539
2042	 0.124011958681968
2043	 0.124229290400771
2044	 0.124475853333986
2045	 0.124635737662603
2046	 0.124691128631325
2047	 0.124976470527056
2048	 0.125285802789275
2049	 0.125486199834624
2050	 0.12578517145538
2051	 0.125987278440735
2052	 0.126035819710371
2053	 0.126185510024588
2054	 0.126385605720571
2055	 0.126553521622974
2056	 0.126714466669833
2057	 0.126854623968981
2058	 0.126952451813441
2059	 0.127119945032391
2060	 0.12727685456596
2061	 0.127468761720846
2062	 0.127686884383294
2063	 0.127902742681017
2064	 0.128046276321639
2065	 0.128263200923628
2066	 0.128443626408359
2067	 0.128603931765299
2068	 0.128759386610175
2069	 0.128902665496207
2070	 0.12905087365635
2071	 0.129167919817815
2072	 0.129340385118648
2073	 0.129585815167654
2074	 0.129775517007379
2075	 0.129937480105933
2076	 0.130141053707571
2077	 0.13035080449304
2078	 0.130569655323988
2079	 0.130794006755786
2080	 0.131044749206603
2081	 0.131210466226875
2082	 0.131261241208414
2083	 0.131386355772042
2084	 0.131541344205358
2085	 0.131660356262194
2086	 0.131761170110034
2087	 0.131899319401035
2088	 0.131973251840149
2089	 0.132126500621674
2090	 0.132398563504833
2091	 0.132607666856887
2092	 0.132812129164124
2093	 0.133058450279536
2094	 0.133186585740795
2095	 0.13335313019753
2096	 0.133535426560618
2097	 0.133637869914855
2098	 0.133784284963364
2099	 0.133919097764995
2100	 0.134108236146526
2101	 0.134342787891279
2102	 0.134540554820431
2103	 0.134773074845953
2104	 0.134969990992774
2105	 0.135174789368349
2106	 0.135304594382539
2107	 0.135317140367361
2108	 0.135428382610421
2109	 0.135526180703817
2110	 0.135634210911324
2111	 0.135839581529248
2112	 0.136085704680225
2113	 0.136274540595734
2114	 0.13648815276875
2115	 0.136681965856218
2116	 0.136891971172483
2117	 0.137062948808135
2118	 0.137163779333726
2119	 0.137345288098014
2120	 0.137594765992383
2121	 0.137761164848772
2122	 0.137924579583048
2123	 0.138079653512286
2124	 0.138157086706052
2125	 0.138265790817091
2126	 0.138436625973344
2127	 0.138570347092499
2128	 0.138541197797479
2129	 0.138552010517057
2130	 0.138642466073383
2131	 0.138790606163728
2132	 0.138906192935812
2133	 0.139120273277242
2134	 0.139267909739237
2135	 0.139351324874212
2136	 0.139414630196291
2137	 0.139491722501237
2138	 0.139566602527174
2139	 0.139571175350629
2140	 0.139607298680473
2141	 0.139704966767758
2142	 0.139780406020493
2143	 0.139812630247315
2144	 0.139856185769535
2145	 0.139937236164759
2146	 0.139973202504397
2147	 0.139957632861193
2148	 0.139993966870724
2149	 0.139982907009978
2150	 0.139869348863162
2151	 0.13980765490642
2152	 0.13982420261483
2153	 0.139861659111018
2154	 0.140029913153226
2155	 0.140053578770988
2156	 0.140037873754972
2157	 0.139974307202551
2158	 0.139791448376448
2159	 0.139709456393149
2160	 0.139642071982748
2161	 0.139606631964577
2162	 0.139620102881287
2163	 0.139612130105041
2164	 0.139678297140361
2165	 0.139628185339544
2166	 0.139466781437792
2167	 0.139389540832381
2168	 0.139262904260248
2169	 0.139140633317285
2170	 0.13928047401884
2171	 0.139363980225337
2172	 0.13941109625385
2173	 0.13952598472806
2174	 0.139527916289687
2175	 0.139440514383471
2176	 0.13937844151402
2177	 0.139264838201373
2178	 0.139183822441629
2179	 0.139109226289782
2180	 0.138999518693782
2181	 0.138900302154585
2182	 0.138799209372444
2183	 0.138621116846616
2184	 0.138534364104707
2185	 0.138534500104663
2186	 0.138461768188006
2187	 0.138373802053488
2188	 0.138321111098045
2189	 0.138249784235739
2190	 0.138181492849493
2191	 0.138217185097941
2192	 0.138206845179839
2193	 0.138152982326506
2194	 0.138182990626404
2195	 0.138094376300948
2196	 0.137959433726503
2197	 0.137898730243181
2198	 0.137837272435403
2199	 0.137742563108893
2200	 0.137753070245112
2201	 0.137601705979895
2202	 0.137248270966053
2203	 0.1370948230432
2204	 0.136928662275094
2205	 0.136835855704383
2206	 0.136888755434485
2207	 0.136917169545037
2208	 0.136987453456484
2209	 0.137031805660934
2210	 0.137108599446407
2211	 0.137136089424712
2212	 0.137072821807242
2213	 0.13708198930059
2214	 0.137089877120484
2215	 0.137157783744935
2216	 0.137340462406544
2217	 0.13745977566741
2218	 0.137487794948313
2219	 0.137528813374838
2220	 0.137592276578221
2221	 0.137634544552569
2222	 0.137641425365539
2223	 0.137630561220168
2224	 0.137568109604677
2225	 0.137358272171019
2226	 0.137258689651484
2227	 0.137176972063013
2228	 0.137170297795108
2229	 0.137262138969429
2230	 0.137223954139992
2231	 0.137156907242035
2232	 0.137132739774166
2233	 0.137027339145355
2234	 0.13697632231454
2235	 0.137056025792433
2236	 0.137060560484549
2237	 0.136954321452476
2238	 0.136962959524669
2239	 0.137088085375299
2240	 0.137086699191485
2241	 0.137073879529059
2242	 0.137047654130819
2243	 0.136855944637248
2244	 0.136811864639239
2245	 0.136893506709012
2246	 0.136949168468132
2247	 0.136934187657668
2248	 0.136838441541183
2249	 0.136648881457052
2250	 0.136503587744754
2251	 0.136515697527773
2252	 0.136562429186473
2253	 0.136582781032823
2254	 0.136536528141302
2255	 0.136491493403554
2256	 0.136551704055685
2257	 0.136493553933542
2258	 0.136430783964445
2259	 0.13632965888477
2260	 0.136076500421838
2261	 0.135998557883279
2262	 0.136051281827241
2263	 0.136019048212292
2264	 0.13604722029097
2265	 0.135949104748681
2266	 0.135742619168727
2267	 0.13556036663666
2268	 0.135281984884165
2269	 0.135129552477825
2270	 0.134991755385161
2271	 0.134918499704589
2272	 0.13505829755951
2273	 0.135014571207077
2274	 0.134954323877156
2275	 0.134795020384095
2276	 0.134336162550478
2277	 0.134124029283763
2278	 0.134091483877207
2279	 0.133896354100435
2280	 0.133809261629013
2281	 0.133610603660366
2282	 0.133222192893777
2283	 0.132792836431411
2284	 0.132471657320523
2285	 0.132160792045369
2286	 0.131915123087452
2287	 0.131811012062579
2288	 0.131705193592705
2289	 0.131514108692753
2290	 0.131453157065837
2291	 0.131374606856589
2292	 0.131252620682358
2293	 0.131173500607649
2294	 0.130819884043834
2295	 0.130467342899031
2296	 0.130382271708603
2297	 0.130352735897256
2298	 0.130427493487659
2299	 0.130440531628388
2300	 0.130292148991639
2301	 0.130164387744598
2302	 0.130045936735728
2303	 0.129920672768533
2304	 0.12984794747027
2305	 0.129805665042543
2306	 0.129722012299176
2307	 0.129729805677373
2308	 0.129566219030217
2309	 0.129227508999429
2310	 0.129078825178871
2311	 0.128918077159651
2312	 0.128763287059598
2313	 0.128747594826641
2314	 0.128576906467734
2315	 0.128239609056627
2316	 0.128118248061552
2317	 0.128130113601821
2318	 0.128037953700441
2319	 0.127950052761106
2320	 0.127884346496728
2321	 0.127727403548396
2322	 0.127702896182969
2323	 0.127854265259445
2324	 0.127871389188745
2325	 0.127882976892326
2326	 0.127812621923986
2327	 0.127677549050686
2328	 0.127557480945609
2329	 0.127327000300988
2330	 0.127167287429672
2331	 0.126964887545521
2332	 0.126927492155863
2333	 0.12711728728357
2334	 0.127144811264196
2335	 0.127151838634032
2336	 0.127167954980216
2337	 0.127237873973216
2338	 0.127103298348535
2339	 0.126948522608182
2340	 0.126662009370115
2341	 0.126055293857822
2342	 0.125452274753181
2343	 0.12535495570571
2344	 0.125277797803596
2345	 0.125293936828938
2346	 0.125334868188116
2347	 0.125089115070187
2348	 0.124939617934471
2349	 0.124854923156103
2350	 0.124730402907898
2351	 0.124738033408862
2352	 0.124634404046846
2353	 0.124410934296367
2354	 0.124399729374167
2355	 0.124249461480591
2356	 0.123810391442832
2357	 0.123512058473215
2358	 0.123365875828182
2359	 0.123257367247302
2360	 0.123174124982334
2361	 0.123095476069686
2362	 0.122678673198385
2363	 0.122157299260306
2364	 0.12190891572355
2365	 0.121441899008756
2366	 0.121207643686992
2367	 0.121145389857049
2368	 0.120702595703027
2369	 0.120664374398747
2370	 0.120603924861502
2371	 0.120208335966535
2372	 0.119985434832331
2373	 0.119789570242041
2374	 0.119333723037126
2375	 0.118758319404945
2376	 0.11838707675481
2377	 0.117913305058829
2378	 0.11758300812531
2379	 0.117436595174133
2380	 0.117121495895079
2381	 0.116730969478651
2382	 0.11649173722293
2383	 0.116353356148702
2384	 0.116188932383759
2385	 0.116160899094953
2386	 0.116156610434846
2387	 0.116112821075346
2388	 0.116170172162748
2389	 0.115973733880826
2390	 0.115638410883192
2391	 0.11523588739263
2392	 0.114419281243168
2393	 0.11401247898665
2394	 0.113482673069472
2395	 0.11285609226457
2396	 0.112474371743326
2397	 0.111656904914625
2398	 0.111392496995092
2399	 0.111159552514067
2400	 0.110905814375896
2401	 0.111042623431861
2402	 0.110712155836916
2403	 0.11019820589257
2404	 0.10983419725315
2405	 0.109486071640181
2406	 0.109130229369034
2407	 0.109127548472047
2408	 0.108903159848732
2409	 0.108399830550431
2410	 0.107909723192384
2411	 0.107199225849213
2412	 0.10679910639108
2413	 0.106573177908107
2414	 0.106743741810683
2415	 0.107075751336161
2416	 0.106844485432236
2417	 0.10665770576113
2418	 0.106493126559699
2419	 0.10617993732542
2420	 0.10613609734134
2421	 0.106252407013656
2422	 0.106125367323765
2423	 0.105489142099924
2424	 0.105085022099396
2425	 0.1048754277254
2426	 0.104198891670123
2427	 0.103173012060481
2428	 0.102574468963946
2429	 0.10186315321767
2430	 0.101430404587478
2431	 0.101417392481836
2432	 0.101133050134039
2433	 0.100709462515889
2434	 0.10039000686061
2435	 0.100133345997173
2436	 0.10005693605987
2437	 0.100189239177714
2438	 9.99741014635777E-02
2439	 0.100030473617721
2440	 0.100123892661977
2441	 9.94333853843796E-02
2442	 9.84984951000731E-02
2443	 9.79443184834442E-02
2444	 9.72208501981656E-02
2445	 9.69228364927998E-02
2446	 9.69435574520423E-02
2447	 9.70551171319129E-02
2448	 9.76573859961083E-02
2449	 9.80683502127966E-02
2450	 9.87054119129294E-02
2451	 9.88317668599181E-02
2452	 9.82391078941645E-02
2453	 9.80377225795609E-02
2454	 9.76613258248905E-02
2455	 9.71577140099954E-02
2456	 9.63428593838142E-02
2457	 9.51976710678167E-02
2458	 9.45744139759287E-02
2459	 9.45321196869631E-02
2460	 9.46211121375199E-02
2461	 9.42531903698518E-02
2462	 0.094357801855307
2463	 9.43932991719417E-02
2464	 9.45339150108947E-02
2465	 9.56252606963622E-02
2466	 9.57145436571762E-02
2467	 9.54501650589382E-02
2468	 9.50821911770875E-02
2469	 0.094295517593595
2470	 9.37168594833888E-02
2471	 9.28178716836769E-02
2472	 9.16989919817592E-02
2473	 9.09710465499514E-02
2474	 9.04338981143171E-02
2475	 0.089602538127803
2476	 8.95671658767324E-02
2477	 9.03889065818988E-02
2478	 9.15864703215839E-02
2479	 9.17875547890603E-02
2480	 9.05432594917961E-02
2481	 8.87106807212287E-02
2482	 8.75925025756154E-02
2483	 8.73392988459841E-02
2484	 8.75088511270787E-02
2485	 8.76380464626553E-02
2486	 8.76410665962233E-02
2487	 8.70446266220869E-02
2488	 8.63880112135862E-02
2489	 8.68717168294915E-02
2490	 0.087658624805866
2491	 8.80092404048077E-02
2492	 8.78186150854028E-02
2493	 8.65239343499566E-02
2494	 8.54106292551455E-02
2495	 0.085266797686337
2496	 8.52707894430931E-02
2497	 8.55919729721679E-02
2498	 8.51013246756169E-02
2499	 8.34657978156858E-02
2500	 8.32190329956657E-02
