Wavelength	signature0012.asd
350	 0.161241296058143
351	 0.141651899448746
352	 0.133506970305434
353	 0.145293709395936
354	 0.159701899137438
355	 0.1338140859397
356	 0.127622055185778
357	 0.141897736742797
358	 0.133145443167326
359	 0.126327087057284
360	 0.12928963236897
361	 0.137649143183363
362	 0.135154428813165
363	 0.128496346202923
364	 0.130839319595765
365	 0.143511743580334
366	 0.13707724137473
367	 0.13201553719731
368	 0.13295474771353
369	 0.137190680627114
370	 0.135661893295666
371	 0.132435794701952
372	 0.132692542486151
373	 0.139295881942881
374	 0.13412454382948
375	 0.130229701255595
376	 0.132846455624796
377	 0.134657725050204
378	 0.132760141339909
379	 0.132626519310509
380	 0.136976986114101
381	 0.139896562190558
382	 0.136289380582914
383	 0.131660075043698
384	 0.132748604677322
385	 0.137197905835412
386	 0.137398673413692
387	 0.135242014899295
388	 0.137090687816857
389	 0.137287923506933
390	 0.138435240832221
391	 0.140598595182989
392	 0.140503185077504
393	 0.140346474653154
394	 0.140525120242879
395	 0.140479431912902
396	 0.137843377641067
397	 0.139865328076053
398	 0.142490110611497
399	 0.140336008105966
400	 0.137255326394849
401	 0.139921964104534
402	 0.145030861279106
403	 0.144102035212607
404	 0.140808619729181
405	 0.141687653359172
406	 0.145735443750872
407	 0.142830379167755
408	 0.143299113965138
409	 0.145052918616547
410	 0.145132060021613
411	 0.145238109746243
412	 0.144548528534034
413	 0.145215151069979
414	 0.148684528171521
415	 0.146921441991782
416	 0.145644909093607
417	 0.1469206282069
418	 0.148870690908786
419	 0.148021019882798
420	 0.147742669135895
421	 0.149728896060133
422	 0.151168589788572
423	 0.150434470133818
424	 0.150133417917545
425	 0.152413887409093
426	 0.153218121526528
427	 0.152209653783968
428	 0.151506097758579
429	 0.15394672170694
430	 0.155863145570067
431	 0.156294024394208
432	 0.156035663897633
433	 0.157634526522138
434	 0.159021193158546
435	 0.159384216557574
436	 0.158978168779192
437	 0.160148159814712
438	 0.161404179560667
439	 0.161920245924743
440	 0.161674818297931
441	 0.163531148821819
442	 0.165203548783909
443	 0.165487358369366
444	 0.164921769281381
445	 0.166683651546516
446	 0.16804332270654
447	 0.167405091492658
448	 0.168895768080414
449	 0.170618867825842
450	 0.171314083698447
451	 0.170625060064105
452	 0.17176084052298
453	 0.173238676721823
454	 0.174137930138612
455	 0.17440632278582
456	 0.174701371821732
457	 0.17555033297554
458	 0.176893296001892
459	 0.177592506170934
460	 0.177711712679575
461	 0.178009209489149
462	 0.179130621565774
463	 0.179838746517468
464	 0.180313296429477
465	 0.180770293131292
466	 0.181363012272355
467	 0.181599543280585
468	 0.181937009276209
469	 0.182536729947576
470	 0.182642024885787
471	 0.1838369718126
472	 0.184910330897735
473	 0.184575157489403
474	 0.18551251691971
475	 0.185953899393918
476	 0.185856339235163
477	 0.186519648309333
478	 0.187156112751508
479	 0.187570123442795
480	 0.187775910712834
481	 0.187937649142485
482	 0.18913773207357
483	 0.190306782551836
484	 0.190298963503193
485	 0.190687964172998
486	 0.191530373413319
487	 0.192401600877742
488	 0.192673778399107
489	 0.193444531699116
490	 0.194454255182095
491	 0.195258280371052
492	 0.195384815746958
493	 0.196330859159394
494	 0.197505549366643
495	 0.197952582626417
496	 0.198180337013666
497	 0.198885260002933
498	 0.199975162679862
499	 0.200764955033739
500	 0.20129908329778
501	 0.202061485381969
502	 0.203187235174014
503	 0.204085544404885
504	 0.204323974359327
505	 0.204780995075902
506	 0.206245507476493
507	 0.207013761421767
508	 0.207360156552147
509	 0.207882391561803
510	 0.209240258318622
511	 0.210066757006459
512	 0.210611490039824
513	 0.211268479083176
514	 0.212166435207493
515	 0.213109567404679
516	 0.213809217455061
517	 0.214202634403014
518	 0.215547356730514
519	 0.216402537614955
520	 0.21668521534186
521	 0.217638953323388
522	 0.218743450147537
523	 0.219580205836486
524	 0.22005656844764
525	 0.220744161201594
526	 0.221759048515399
527	 0.222850970587492
528	 0.223681806171913
529	 0.224450946562585
530	 0.225496522894085
531	 0.226663508780839
532	 0.227304957359196
533	 0.228196673883
534	 0.229174257713253
535	 0.230031660962402
536	 0.230985593306483
537	 0.232036299854142
538	 0.233097945305814
539	 0.234085237846876
540	 0.235246066675279
541	 0.236420397767845
542	 0.237538129671392
543	 0.238683182611889
544	 0.239742823145526
545	 0.240909614988462
546	 0.242281555594852
547	 0.243431254713219
548	 0.244548594034507
549	 0.245779962138964
550	 0.247205803242564
551	 0.248613910008226
552	 0.249882286020441
553	 0.25107586632934
554	 0.252529850029506
555	 0.253960864062739
556	 0.255288794512858
557	 0.256545929692557
558	 0.257930462251146
559	 0.259361865066576
560	 0.260806924479895
561	 0.262264538976022
562	 0.263575782110096
563	 0.265020870070593
564	 0.266642311173991
565	 0.267875819637381
566	 0.269139356809303
567	 0.270574206524961
568	 0.272158657639637
569	 0.273564655552783
570	 0.274931960577527
571	 0.276337981945567
572	 0.277771368196888
573	 0.279113530162337
574	 0.280500393579069
575	 0.28206132448083
576	 0.283801394924443
577	 0.285393516358729
578	 0.287033542846276
579	 0.288998313997559
580	 0.290446875379812
581	 0.291858723190125
582	 0.293462085219265
583	 0.295046384743252
584	 0.296326334542605
585	 0.297559749665071
586	 0.298956260426453
587	 0.300176366056496
588	 0.301412772662465
589	 0.302536191447611
590	 0.303320466949407
591	 0.304350794786437
592	 0.305223942180052
593	 0.305841788815015
594	 0.306693648918273
595	 0.307755967153762
596	 0.308640854090497
597	 0.309094344060916
598	 0.309825497263493
599	 0.310566608942351
600	 0.311153958214598
601	 0.311546776518805
602	 0.312089916354234
603	 0.312838031914795
604	 0.31358325373314
605	 0.313676760863652
606	 0.31410164193166
607	 0.314811962419514
608	 0.315397520529402
609	 0.315526450991997
610	 0.315843162364053
611	 0.316503838299627
612	 0.317160064788653
613	 0.317401635581455
614	 0.317647494462826
615	 0.318199502937138
616	 0.318724569165541
617	 0.319183103067283
618	 0.319600731489915
619	 0.320059166795018
620	 0.320694446195918
621	 0.321262003866799
622	 0.321745917198068
623	 0.322403984294725
624	 0.322973935256621
625	 0.323419569548947
626	 0.323833950668898
627	 0.324526689991308
628	 0.325269579889114
629	 0.325929438893676
630	 0.326473955212265
631	 0.327206694705752
632	 0.328066020537115
633	 0.328900503273157
634	 0.329493717246344
635	 0.330335538088646
636	 0.331270967833204
637	 0.332070368720515
638	 0.332839510746212
639	 0.333747577071209
640	 0.334724655426856
641	 0.335566926206618
642	 0.336393648594826
643	 0.337300601016373
644	 0.338263714608432
645	 0.339078475462068
646	 0.33977096561891
647	 0.340548527113317
648	 0.341543355903604
649	 0.342377585698269
650	 0.343078910201765
651	 0.343798070465759
652	 0.34473171971038
653	 0.345546141660735
654	 0.346189617859421
655	 0.3467899074738
656	 0.347738763923369
657	 0.348548978316525
658	 0.349234590823839
659	 0.349987301927554
660	 0.350980499090505
661	 0.351911660845257
662	 0.352667245190199
663	 0.353341581059626
664	 0.354270673071237
665	 0.355291839688877
666	 0.356217689331838
667	 0.35698547771825
668	 0.357907089087986
669	 0.358886541284947
670	 0.359722620262284
671	 0.360537227693889
672	 0.361522176991865
673	 0.362549846595164
674	 0.363222823593441
675	 0.364003949906161
676	 0.364907722513866
677	 0.365802208845936
678	 0.366373481838595
679	 0.367212068671997
680	 0.368245230027795
681	 0.369149470290524
682	 0.369867208433794
683	 0.370734966161307
684	 0.371792096410037
685	 0.372751471254918
686	 0.373602149116493
687	 0.374511465579129
688	 0.375573787841302
689	 0.376622933090425
690	 0.377576739948662
691	 0.378523761824402
692	 0.379598395739099
693	 0.380710952413252
694	 0.381645451111322
695	 0.382447522628385
696	 0.383430062166491
697	 0.384428933094017
698	 0.385300087730094
699	 0.386037614554463
700	 0.386986807796774
701	 0.38779465597563
702	 0.388501091601975
703	 0.389281058349966
704	 0.390039903544368
705	 0.390750840958493
706	 0.391411826097319
707	 0.392045486111261
708	 0.392751309793332
709	 0.393421454441747
710	 0.393993407937585
711	 0.394610189942899
712	 0.395247241250066
713	 0.395881282567311
714	 0.396490011408738
715	 0.397085724032802
716	 0.397666391497461
717	 0.39822559355189
718	 0.398757920573943
719	 0.399331779995668
720	 0.399868613843528
721	 0.400333317878786
722	 0.400847414932761
723	 0.401339338401131
724	 0.401852292715477
725	 0.402426835717136
726	 0.402887815059357
727	 0.403322338786289
728	 0.40380321539112
729	 0.404358243515179
730	 0.404740143247671
731	 0.405070403689054
732	 0.405467744653943
733	 0.405926823566729
734	 0.406344599715785
735	 0.406720772786605
736	 0.407106149433192
737	 0.407612530016154
738	 0.407967541378379
739	 0.408186492067258
740	 0.408501516498715
741	 0.408950199118915
742	 0.409412415816597
743	 0.409778357718817
744	 0.409991939089075
745	 0.4103397011194
746	 0.410693150340151
747	 0.41091820834717
748	 0.411282450321497
749	 0.411709244472162
750	 0.412068725742999
751	 0.412250919457631
752	 0.412502385827896
753	 0.412889694039817
754	 0.413295208111047
755	 0.413424869744613
756	 0.413721380220366
757	 0.414104875180338
758	 0.414399475915011
759	 0.414467509437224
760	 0.414683625691716
761	 0.415012082471438
762	 0.415263968870974
763	 0.415443628496939
764	 0.41570457064663
765	 0.415999355088424
766	 0.416116307544849
767	 0.416173442517354
768	 0.41634191948616
769	 0.416652173272931
770	 0.416882706979978
771	 0.417033292851985
772	 0.4172174797199
773	 0.417503756521399
774	 0.41766004863785
775	 0.41780212802397
776	 0.418008151683272
777	 0.418295041866391
778	 0.418445225011084
779	 0.418540396330419
780	 0.418690092291102
781	 0.418983377524094
782	 0.419151401210965
783	 0.419241153296739
784	 0.41935353757048
785	 0.419562291923551
786	 0.419712459203129
787	 0.419816142754539
788	 0.419943807795723
789	 0.420142037924145
790	 0.420269851628021
791	 0.420332509500077
792	 0.420439433005226
793	 0.420635894904046
794	 0.420761247298048
795	 0.42078671038637
796	 0.420877477634333
797	 0.421037284400283
798	 0.421171979134107
799	 0.421235428506589
800	 0.42136169380008
801	 0.42140433247387
802	 0.421392310305551
803	 0.421430060606867
804	 0.42166078467892
805	 0.421761970638428
806	 0.421760523026266
807	 0.421887500289108
808	 0.421854310340923
809	 0.421906214541901
810	 0.422062746614999
811	 0.422026168555987
812	 0.422132613299745
813	 0.422222085102957
814	 0.422195119528853
815	 0.422298205644366
816	 0.422363883747805
817	 0.422444790586156
818	 0.422585638412454
819	 0.422528187245976
820	 0.422545432534007
821	 0.422649824514688
822	 0.42270904978426
823	 0.422725113499399
824	 0.422796334343152
825	 0.422942065716499
826	 0.423079006206821
827	 0.422901699429324
828	 0.422895222131737
829	 0.423190568011673
830	 0.42317244451405
831	 0.423061082805982
832	 0.423009557325782
833	 0.423079952167651
834	 0.423129561253606
835	 0.42307963523121
836	 0.423079956189259
837	 0.423267884590439
838	 0.423332488439804
839	 0.423194884208692
840	 0.423068060532696
841	 0.423247537003666
842	 0.423278343832202
843	 0.423289674526196
844	 0.423346427614814
845	 0.423392673227523
846	 0.423365323618418
847	 0.423305371684602
848	 0.423311448021163
849	 0.423528617199753
850	 0.423519045018864
851	 0.423371876315722
852	 0.423298091651943
853	 0.423482738029453
854	 0.423486751074313
855	 0.423356368813296
856	 0.423304466652314
857	 0.423492122776503
858	 0.423537026357645
859	 0.423451223186185
860	 0.423457205548034
861	 0.42369822336523
862	 0.423720412338727
863	 0.423554644329127
864	 0.423591231487852
865	 0.423777981646066
866	 0.423728344785197
867	 0.423491766973819
868	 0.423582143887745
869	 0.423730239310224
870	 0.423777654634239
871	 0.423727133551591
872	 0.423791218252763
873	 0.423819786400704
874	 0.423839396095019
875	 0.423869760724924
876	 0.42382591682732
877	 0.423938646961239
878	 0.424045809815692
879	 0.423995630330296
880	 0.42403680871654
881	 0.424080330678426
882	 0.424103079112076
883	 0.424125394654205
884	 0.424241914914709
885	 0.424386726876642
886	 0.424412855745296
887	 0.424244597744867
888	 0.424340027823488
889	 0.424554682090339
890	 0.42471878662394
891	 0.42472253466244
892	 0.424784018697147
893	 0.424885575930158
894	 0.424958638289988
895	 0.424941002224488
896	 0.425056525739458
897	 0.425223930539228
898	 0.425349128163701
899	 0.425383646078586
900	 0.425382421039112
901	 0.425504938971235
902	 0.425718991802656
903	 0.425735473713786
904	 0.42584501067824
905	 0.426033698038015
906	 0.426153648674326
907	 0.425962835281729
908	 0.426240201430395
909	 0.426541915353419
910	 0.426506133226624
911	 0.426536027641426
912	 0.426840593587243
913	 0.427152065968071
914	 0.427180299118473
915	 0.426902351961927
916	 0.427201447774053
917	 0.427570732273217
918	 0.42747233523383
919	 0.427540249199086
920	 0.427899731001246
921	 0.428112292332414
922	 0.42789297975402
923	 0.428083522174737
924	 0.428425711546548
925	 0.428673018763682
926	 0.428671232000678
927	 0.428552343824087
928	 0.42882330377015
929	 0.429170368579689
930	 0.429137321444403
931	 0.429105082992937
932	 0.429358542132866
933	 0.429541237636104
934	 0.429312444605565
935	 0.429579090010543
936	 0.429912916970638
937	 0.430024921515871
938	 0.429868094570295
939	 0.42996790314469
940	 0.430283393038838
941	 0.430477912250078
942	 0.430326284138298
943	 0.430628461634448
944	 0.430911238245469
945	 0.430919132541524
946	 0.430723403509464
947	 0.431148388354461
948	 0.431376031003922
949	 0.431289510267133
950	 0.431199476644498
951	 0.431522303962948
952	 0.431655112352635
953	 0.431713954717987
954	 0.432048300581455
955	 0.432495063028059
956	 0.432639519776831
957	 0.432342361916863
958	 0.43189563324882
959	 0.432533305418834
960	 0.433080903007111
961	 0.433145579221234
962	 0.432921326781168
963	 0.433245377026674
964	 0.433651745720099
965	 0.433797066177179
966	 0.433666372186567
967	 0.434064954680065
968	 0.434314807042311
969	 0.434385474557127
970	 0.434545239127769
971	 0.435255284737482
972	 0.435300591116035
973	 0.435120087640655
974	 0.435412703682413
975	 0.436217205209414
976	 0.436255782854924
977	 0.436132539602706
978	 0.436461731531746
979	 0.436831803077202
980	 0.436945734717723
981	 0.436947957629909
982	 0.437126239562446
983	 0.437724391357207
984	 0.438002799010234
985	 0.437909187272466
986	 0.437842200226697
987	 0.438416649360673
988	 0.43864610903556
989	 0.438355644067741
990	 0.438482752833192
991	 0.440262322901822
992	 0.439775846599208
993	 0.439085797896512
994	 0.439387946477212
995	 0.440328266163377
996	 0.440486924749781
997	 0.440284547972783
998	 0.440577266551805
999	 0.441704710523804
1000	 0.441188791601318
1001	 0.442556195466024
1002	 0.442735998443207
1003	 0.442907414301143
1004	 0.443083071157725
1005	 0.443321450148286
1006	 0.443637934278063
1007	 0.443784920888424
1008	 0.443733363671907
1009	 0.443804855761226
1010	 0.443932266734077
1011	 0.444098146033532
1012	 0.444073863738119
1013	 0.444178827150211
1014	 0.444383617451158
1015	 0.444418514909019
1016	 0.44453283617078
1017	 0.444763545399814
1018	 0.444787268107811
1019	 0.44474507271576
1020	 0.44473889748059
1021	 0.44446647432768
1022	 0.444602064476824
1023	 0.445258313926963
1024	 0.44546850262856
1025	 0.445621988730769
1026	 0.44582802865734
1027	 0.445887740357113
1028	 0.4454684635878
1029	 0.445347768176197
1030	 0.445530602219041
1031	 0.4455709994255
1032	 0.445626250896228
1033	 0.445836150250572
1034	 0.445993952509591
1035	 0.4460069681364
1036	 0.446061905026819
1037	 0.446146549463228
1038	 0.446206519333647
1039	 0.446263554836635
1040	 0.446391971421151
1041	 0.44649341617385
1042	 0.446551397625374
1043	 0.446638667380004
1044	 0.446819408319912
1045	 0.446988231892824
1046	 0.447046520258376
1047	 0.447102969318291
1048	 0.447081774555361
1049	 0.447089412491586
1050	 0.447271890763107
1051	 0.447504095255738
1052	 0.44777907994222
1053	 0.447989009664922
1054	 0.448214283576317
1055	 0.448269369152156
1056	 0.448347735896651
1057	 0.448521040676605
1058	 0.448609022282637
1059	 0.448763408937909
1060	 0.448901977853477
1061	 0.448920898842758
1062	 0.449077543979237
1063	 0.449252790467697
1064	 0.449453616277166
1065	 0.449702649087594
1066	 0.449822293762767
1067	 0.449935389414271
1068	 0.450048338910674
1069	 0.450072003134994
1070	 0.450200879889606
1071	 0.45040258917473
1072	 0.450547668443345
1073	 0.450763119956875
1074	 0.45100722079494
1075	 0.451051267095786
1076	 0.451150565750569
1077	 0.451270249802607
1078	 0.451321508411925
1079	 0.451455124598305
1080	 0.451564564121672
1081	 0.451579038027798
1082	 0.451552932369667
1083	 0.451610961760697
1084	 0.451689993666806
1085	 0.451830922636657
1086	 0.452100055364613
1087	 0.452231405011551
1088	 0.45233966384275
1089	 0.452410651275487
1090	 0.452388532779011
1091	 0.452451907023052
1092	 0.45255671402771
1093	 0.452571779083339
1094	 0.452603772263428
1095	 0.452681555714469
1096	 0.45278405489942
1097	 0.45287481454108
1098	 0.452923880868576
1099	 0.45294081733068
1100	 0.452985389110817
1101	 0.453017518232979
1102	 0.453033111566444
1103	 0.453059995325121
1104	 0.4530872613773
1105	 0.453074867820413
1106	 0.453160175631722
1107	 0.453327763592253
1108	 0.453409751983273
1109	 0.453437803643549
1110	 0.453431571013395
1111	 0.453383219282092
1112	 0.453378042016415
1113	 0.453403490432605
1114	 0.453486902484632
1115	 0.453538227681366
1116	 0.453591234875192
1117	 0.453627676242063
1118	 0.453647227805175
1119	 0.453677398189359
1120	 0.453673333402478
1121	 0.453760925603179
1122	 0.453864514535992
1123	 0.453890574385892
1124	 0.45390128563209
1125	 0.453926011269197
1126	 0.453940989229131
1127	 0.453987581057024
1128	 0.454039040939924
1129	 0.454109638046648
1130	 0.454181313898117
1131	 0.454283193949333
1132	 0.45430971596471
1133	 0.454310094812492
1134	 0.45430477525979
1135	 0.454209330581178
1136	 0.454196932452341
1137	 0.454248238651702
1138	 0.454265048347984
1139	 0.454270008095677
1140	 0.454324992738914
1141	 0.45434602697503
1142	 0.454374768546996
1143	 0.454441700136405
1144	 0.454419708502693
1145	 0.454401558383308
1146	 0.454363572921634
1147	 0.454331014215591
1148	 0.454278967373553
1149	 0.454236218282792
1150	 0.454171572202837
1151	 0.454143638849656
1152	 0.454117517759412
1153	 0.454119965713459
1154	 0.454195442797482
1155	 0.454210050764724
1156	 0.454185882622889
1157	 0.454197759077072
1158	 0.454223264299262
1159	 0.454243406952817
1160	 0.454338787657095
1161	 0.454456335562251
1162	 0.454519190593939
1163	 0.454549099670071
1164	 0.454617695657349
1165	 0.454668783075258
1166	 0.454743480463121
1167	 0.454872522740924
1168	 0.454949835973742
1169	 0.455008879111163
1170	 0.455066537079043
1171	 0.455093134238833
1172	 0.455140798987133
1173	 0.455197348922048
1174	 0.455247845730853
1175	 0.45530230985742
1176	 0.455352508827696
1177	 0.455448809507413
1178	 0.45551259144563
1179	 0.455515091501276
1180	 0.455601840699285
1181	 0.455650907335344
1182	 0.455669865372149
1183	 0.455687169648057
1184	 0.455701010662403
1185	 0.455737372346567
1186	 0.455756811678331
1187	 0.455802353476204
1188	 0.455920307701228
1189	 0.455971408630715
1190	 0.455983045918277
1191	 0.456003081067494
1192	 0.455988045765372
1193	 0.455998975988824
1194	 0.456020795869158
1195	 0.456045210780414
1196	 0.456100813548107
1197	 0.456185421522573
1198	 0.456204984180524
1199	 0.456202298132245
1200	 0.45621952747767
1201	 0.456200603596114
1202	 0.456204283170336
1203	 0.456232670294101
1204	 0.456272846120704
1205	 0.456331034201129
1206	 0.456343412775805
1207	 0.456349515173722
1208	 0.456367673533364
1209	 0.456332180357361
1210	 0.456340629410033
1211	 0.456404110145192
1212	 0.456452940029841
1213	 0.45651431596627
1214	 0.456561516521748
1215	 0.456566936498405
1216	 0.456555751347188
1217	 0.456557066121074
1218	 0.456519558223668
1219	 0.456518295601897
1220	 0.456553249360537
1221	 0.4565642698022
1222	 0.456550325929029
1223	 0.456572577264878
1224	 0.456627766115752
1225	 0.456653440765084
1226	 0.456689297197631
1227	 0.456704906963472
1228	 0.456661151614824
1229	 0.456679347233035
1230	 0.456747382348743
1231	 0.45677940905233
1232	 0.456818261592397
1233	 0.456860313473101
1234	 0.456862311783665
1235	 0.456895929994006
1236	 0.456939482974282
1237	 0.457027132095633
1238	 0.457056884536795
1239	 0.457057846194289
1240	 0.457088965621736
1241	 0.457131942387145
1242	 0.457128847368001
1243	 0.457067173859546
1244	 0.457125889468218
1245	 0.457234598544203
1246	 0.457285241701945
1247	 0.457431960700545
1248	 0.457491367526052
1249	 0.457410893255252
1250	 0.457401736730571
1251	 0.457424437457454
1252	 0.457441247679278
1253	 0.45746079161927
1254	 0.457482285969777
1255	 0.457506941175296
1256	 0.457525870470835
1257	 0.457587949479869
1258	 0.457683793121505
1259	 0.45773035672463
1260	 0.457786908625925
1261	 0.45783295911105
1262	 0.457846341339332
1263	 0.457860202818034
1264	 0.457891727172872
1265	 0.457900272231432
1266	 0.457865880855965
1267	 0.45785722102245
1268	 0.457855894529746
1269	 0.457861701908828
1270	 0.45787419258307
1271	 0.457883608095373
1272	 0.457929165964017
1273	 0.45792542845326
1274	 0.457862139635957
1275	 0.457842573561474
1276	 0.457783845590758
1277	 0.457781725665722
1278	 0.457819413104228
1279	 0.45795488186029
1280	 0.457947706995534
1281	 0.457910745623302
1282	 0.457886339128455
1283	 0.45775904899225
1284	 0.457751318106683
1285	 0.457854438120318
1286	 0.457864466098754
1287	 0.457868158412701
1288	 0.457859185869683
1289	 0.457797895780184
1290	 0.457766392795395
1291	 0.457754512512736
1292	 0.457729748756681
1293	 0.457708191754218
1294	 0.457673011866781
1295	 0.457628081878725
1296	 0.457579645136393
1297	 0.457516545134384
1298	 0.457456820545761
1299	 0.457409689613497
1300	 0.457337067920355
1301	 0.45726292251356
1302	 0.457186610285099
1303	 0.457095360385747
1304	 0.456977158493075
1305	 0.456895929214871
1306	 0.456822907773031
1307	 0.456742664701685
1308	 0.456696022761351
1309	 0.456604867966416
1310	 0.456480664489485
1311	 0.456368495929441
1312	 0.456251854080529
1313	 0.456118127869921
1314	 0.45595975747204
1315	 0.455839263634621
1316	 0.455711868071308
1317	 0.455608119380912
1318	 0.455564047850213
1319	 0.455476093377269
1320	 0.455389302097542
1321	 0.455275857940554
1322	 0.455115806420356
1323	 0.454981756393592
1324	 0.45483777454343
1325	 0.454707357917072
1326	 0.454589476127057
1327	 0.454462768313523
1328	 0.454369684738477
1329	 0.454308597362166
1330	 0.454193261450623
1331	 0.454080697838035
1332	 0.453956580092388
1333	 0.453767930379996
1334	 0.45364237167444
1335	 0.453576379541357
1336	 0.453456290814922
1337	 0.453309991056062
1338	 0.453199938774582
1339	 0.453106027432275
1340	 0.452974888358966
1341	 0.452851026792314
1342	 0.452719734675335
1343	 0.452550845921136
1344	 0.452383893464896
1345	 0.452217174026136
1346	 0.452067338114538
1347	 0.451935390826021
1348	 0.451761777407427
1349	 0.451572087788683
1350	 0.451392402885705
1351	 0.451213278285391
1352	 0.45105554360109
1353	 0.450894425920752
1354	 0.450741677837629
1355	 0.450555994368866
1356	 0.450315690996509
1357	 0.450102572650629
1358	 0.449889821987295
1359	 0.449696684320403
1360	 0.44950090999875
1361	 0.449319851802969
1362	 0.449189897070821
1363	 0.449000811117643
1364	 0.448793312868804
1365	 0.44856676462048
1366	 0.448315820640562
1367	 0.448054352670175
1368	 0.447793735118724
1369	 0.447494166640939
1370	 0.447210155715401
1371	 0.446827810793329
1372	 0.446423113011597
1373	 0.445916322365701
1374	 0.445344420254071
1375	 0.444659768379746
1376	 0.443903825608869
1377	 0.443027933869401
1378	 0.441990594016651
1379	 0.440859445827633
1380	 0.43960886944406
1381	 0.438177670592513
1382	 0.436591437675049
1383	 0.434891507038613
1384	 0.433131125819769
1385	 0.431189862476792
1386	 0.429366390357733
1387	 0.427470296440018
1388	 0.425771872497751
1389	 0.424104513557192
1390	 0.422608112106579
1391	 0.421239284021784
1392	 0.419987816453719
1393	 0.418928196314831
1394	 0.417778848246688
1395	 0.416780727718584
1396	 0.415596859146857
1397	 0.414376218120718
1398	 0.412993390619439
1399	 0.41148271597954
1400	 0.409915592814995
1401	 0.408194486486342
1402	 0.406454518695044
1403	 0.40460114414754
1404	 0.402816786413558
1405	 0.400983100318902
1406	 0.399217935677639
1407	 0.397475245039657
1408	 0.395818293968805
1409	 0.394211760093538
1410	 0.392707404015923
1411	 0.391374802242679
1412	 0.390215928316996
1413	 0.389268206359351
1414	 0.388504528150249
1415	 0.387958055356226
1416	 0.387619387643193
1417	 0.387443139626189
1418	 0.387473799190577
1419	 0.387591766714526
1420	 0.387923481916192
1421	 0.388223839262729
1422	 0.388639546436923
1423	 0.38901316773187
1424	 0.389400078329267
1425	 0.389811079278267
1426	 0.390216258677231
1427	 0.390677705943095
1428	 0.391205035114803
1429	 0.391708280116896
1430	 0.392240007463348
1431	 0.392765235583147
1432	 0.393257972738769
1433	 0.393800587490649
1434	 0.394392650452138
1435	 0.394954789743562
1436	 0.395542713492171
1437	 0.396103646920244
1438	 0.396629870910818
1439	 0.397164358867594
1440	 0.397713531253921
1441	 0.398228160702886
1442	 0.398731718960361
1443	 0.399216431585254
1444	 0.399678374156819
1445	 0.400121165277512
1446	 0.40055282108754
1447	 0.400922451498521
1448	 0.40124396761906
1449	 0.401542386441866
1450	 0.401833105305049
1451	 0.402161955821028
1452	 0.402509368690813
1453	 0.402812398348908
1454	 0.403040434565746
1455	 0.403200083569983
1456	 0.403386608351559
1457	 0.403516618504129
1458	 0.403702630319322
1459	 0.403933789050266
1460	 0.404126393456668
1461	 0.404289280006862
1462	 0.404493122028273
1463	 0.404684807519385
1464	 0.404943753328107
1465	 0.405263858094053
1466	 0.405570035366352
1467	 0.405882588878231
1468	 0.406243442270035
1469	 0.406622439545551
1470	 0.40702573496691
1471	 0.407498525029033
1472	 0.407946280773053
1473	 0.408394372005772
1474	 0.408841550029196
1475	 0.409287463130204
1476	 0.409739645968746
1477	 0.410186603761774
1478	 0.410649933890348
1479	 0.411131266186529
1480	 0.411610409094534
1481	 0.412092138425926
1482	 0.412581411233417
1483	 0.41308532234356
1484	 0.41357486031163
1485	 0.414089007239331
1486	 0.414556816945944
1487	 0.41496308398032
1488	 0.415407390173231
1489	 0.415874159951169
1490	 0.416293709633759
1491	 0.416689032418612
1492	 0.41711858891977
1493	 0.417508192905335
1494	 0.417890302303886
1495	 0.41829248337127
1496	 0.418680723443555
1497	 0.419083256509259
1498	 0.419483669082409
1499	 0.419907738483469
1500	 0.420342094845181
1501	 0.420736240609276
1502	 0.421098986298921
1503	 0.421468996775917
1504	 0.421865032831965
1505	 0.422217566243435
1506	 0.422562976083138
1507	 0.422904166432451
1508	 0.42320277577935
1509	 0.423555074981132
1510	 0.423952415544622
1511	 0.424297390066601
1512	 0.424641596916102
1513	 0.424977885469512
1514	 0.425274961497328
1515	 0.425597312288147
1516	 0.425943828280504
1517	 0.42626459157264
1518	 0.426577689233807
1519	 0.426878317253722
1520	 0.427165977522479
1521	 0.427454392430049
1522	 0.427743532772879
1523	 0.428001651021084
1524	 0.428244917326408
1525	 0.428481845190303
1526	 0.428694862788366
1527	 0.428901792867083
1528	 0.429086686115812
1529	 0.429301473015492
1530	 0.429528879880539
1531	 0.429746024409737
1532	 0.429971529766205
1533	 0.430199781283506
1534	 0.430414980359833
1535	 0.430627515345066
1536	 0.430871285639865
1537	 0.431089933274937
1538	 0.431278076625322
1539	 0.431469285215823
1540	 0.431649219226059
1541	 0.431830186831995
1542	 0.432021058640521
1543	 0.432196273523153
1544	 0.432361144597042
1545	 0.432523471563992
1546	 0.432670350902911
1547	 0.432817175355957
1548	 0.432946587471423
1549	 0.433113356848375
1550	 0.433308231842815
1551	 0.433480321841313
1552	 0.433680798496029
1553	 0.433848190383926
1554	 0.433979133446438
1555	 0.434112401303773
1556	 0.434225057369199
1557	 0.434355541408102
1558	 0.434473000646959
1559	 0.434615510927054
1560	 0.434794006638938
1561	 0.434953235717548
1562	 0.435140367147528
1563	 0.435289487484453
1564	 0.435382953431381
1565	 0.435517784228907
1566	 0.435672322850972
1567	 0.435794102939394
1568	 0.43590263498354
1569	 0.436038324989003
1570	 0.436180058446535
1571	 0.436295841650189
1572	 0.436443196221186
1573	 0.436557881952965
1574	 0.436624593870495
1575	 0.436665441362262
1576	 0.436742927000032
1577	 0.436854327638984
1578	 0.436986253618556
1579	 0.437122881246377
1580	 0.437249016840931
1581	 0.437344943353305
1582	 0.437435223052199
1583	 0.437550628707553
1584	 0.437664867544829
1585	 0.437788966801756
1586	 0.437916807246653
1587	 0.438044661137513
1588	 0.43818385255203
1589	 0.438310964085787
1590	 0.438424405434351
1591	 0.43851820442089
1592	 0.438625368187578
1593	 0.438711241401289
1594	 0.438801037019774
1595	 0.438934713670577
1596	 0.439028041355439
1597	 0.439150656418279
1598	 0.439305734949637
1599	 0.43939612623988
1600	 0.439488054311746
1601	 0.43958707089521
1602	 0.439647833394533
1603	 0.439725088932287
1604	 0.439821978225223
1605	 0.439941681432394
1606	 0.440061804077453
1607	 0.440172718575131
1608	 0.440279665900389
1609	 0.44035878720656
1610	 0.440473659116091
1611	 0.440593760361712
1612	 0.440690875345061
1613	 0.440805021628438
1614	 0.440893044182098
1615	 0.440962690556654
1616	 0.441078760367857
1617	 0.441243665911291
1618	 0.441385860777606
1619	 0.441560734816739
1620	 0.441675009458478
1621	 0.441763692757512
1622	 0.4418413769428
1623	 0.441881908589514
1624	 0.441962413089127
1625	 0.442054898631959
1626	 0.442116392707523
1627	 0.442169662333818
1628	 0.442247168732425
1629	 0.44234372157054
1630	 0.442487744398623
1631	 0.442613314310855
1632	 0.442705418568672
1633	 0.442776532098197
1634	 0.442855116627176
1635	 0.442947656183558
1636	 0.443049448434483
1637	 0.443164377817895
1638	 0.443292236560789
1639	 0.44342861317929
1640	 0.44347975965162
1641	 0.443547089127708
1642	 0.443598735289839
1643	 0.443620073542029
1644	 0.443626620736412
1645	 0.443647865393798
1646	 0.443634131975706
1647	 0.443633356515167
1648	 0.443666545153626
1649	 0.443694227276729
1650	 0.44369004103811
1651	 0.443724301471899
1652	 0.443782464252798
1653	 0.443856307454563
1654	 0.443992102440336
1655	 0.444082486322224
1656	 0.44415875202271
1657	 0.444229886827009
1658	 0.444277248281569
1659	 0.444313478339022
1660	 0.444338898996847
1661	 0.444367267984991
1662	 0.444380893875459
1663	 0.444393596566084
1664	 0.444416902347497
1665	 0.444430253803702
1666	 0.444414088907456
1667	 0.444422812457201
1668	 0.444451759699582
1669	 0.444471279357364
1670	 0.444497481201054
1671	 0.444525915692022
1672	 0.444548136755917
1673	 0.444569633296811
1674	 0.444597008107637
1675	 0.444625754223535
1676	 0.44466212799846
1677	 0.444676459364957
1678	 0.444680273628158
1679	 0.444685674409916
1680	 0.444660086823565
1681	 0.444667276164175
1682	 0.444714219618578
1683	 0.444725810539663
1684	 0.444716296876488
1685	 0.444733203875483
1686	 0.444763752702918
1687	 0.444760442811921
1688	 0.444765005499802
1689	 0.444756684041884
1690	 0.444690248470435
1691	 0.444667232774091
1692	 0.444672085679162
1693	 0.444666322893667
1694	 0.444693908020196
1695	 0.444669800867263
1696	 0.444612624715971
1697	 0.444577542247212
1698	 0.444511959723111
1699	 0.444463829986083
1700	 0.444437869378897
1701	 0.44440331364694
1702	 0.444358266457117
1703	 0.444325620755923
1704	 0.444314287411301
1705	 0.444284084296292
1706	 0.444255074154655
1707	 0.444203497589385
1708	 0.444139281282151
1709	 0.444064548025677
1710	 0.443974252647922
1711	 0.443874154064969
1712	 0.443748551543476
1713	 0.443648345632055
1714	 0.443540877088916
1715	 0.443463168906807
1716	 0.443433829119752
1717	 0.44333371752135
1718	 0.443215182478071
1719	 0.443047160758594
1720	 0.442890003259614
1721	 0.44278732328499
1722	 0.442701757322021
1723	 0.442635489874866
1724	 0.442535764003002
1725	 0.442345773666526
1726	 0.442202251037736
1727	 0.44208643315535
1728	 0.441916985764038
1729	 0.441718914904985
1730	 0.441507784892556
1731	 0.441289662707454
1732	 0.441065021302212
1733	 0.440897954375387
1734	 0.440766372984697
1735	 0.44062405704863
1736	 0.44043177057481
1737	 0.440208680171629
1738	 0.43999564828303
1739	 0.439706533946575
1740	 0.439497929407608
1741	 0.439363845277905
1742	 0.439211693030129
1743	 0.439090356277775
1744	 0.438947496153423
1745	 0.438801745280639
1746	 0.438646565480568
1747	 0.438486802482113
1748	 0.438308942799491
1749	 0.438112675907026
1750	 0.437926605575568
1751	 0.437731068148966
1752	 0.43753335788704
1753	 0.437332186305749
1754	 0.437120924197495
1755	 0.436896291215834
1756	 0.436699152123565
1757	 0.436514487187245
1758	 0.436342869481193
1759	 0.436177830222584
1760	 0.436012904310168
1761	 0.435858011860812
1762	 0.435634035429798
1763	 0.435483898709995
1764	 0.43534110408564
1765	 0.435142510243606
1766	 0.434972274238275
1767	 0.43480430791301
1768	 0.434633947421849
1769	 0.434475302808107
1770	 0.43435288664077
1771	 0.434257136145635
1772	 0.434143535846856
1773	 0.433997733551552
1774	 0.433968589460703
1775	 0.433975983653402
1776	 0.433819532735483
1777	 0.433747105034606
1778	 0.433533385937255
1779	 0.433108573457571
1780	 0.432976009959038
1781	 0.432852626566529
1782	 0.432864035985788
1783	 0.432810089363888
1784	 0.432688601140108
1785	 0.43262521962967
1786	 0.432581730546529
1787	 0.432506506781137
1788	 0.43244856818311
1789	 0.432407447751445
1790	 0.432352288197815
1791	 0.432328486022571
1792	 0.432354475014517
1793	 0.432308244651323
1794	 0.432252109365818
1795	 0.432265374483125
1796	 0.432303565744799
1797	 0.432371813165363
1798	 0.432438503777404
1799	 0.432467268565071
1800	 0.432455666628095
1801	 0.432427032023193
1802	 0.432429298425431
1803	 0.432452978170833
1804	 0.432531343814746
1805	 0.432646219961661
1806	 0.432690096316553
1807	 0.432664274689693
1808	 0.432649900712926
1809	 0.432593703272358
1810	 0.432508434920395
1811	 0.432451391669699
1812	 0.432375373171536
1813	 0.432312445437367
1814	 0.432320828851117
1815	 0.432413392756354
1816	 0.432442689345768
1817	 0.432461503509393
1818	 0.432441981988253
1819	 0.432441460135148
1820	 0.432402827547294
1821	 0.432434850031809
1822	 0.432481625004564
1823	 0.432504481121286
1824	 0.432511064614201
1825	 0.432502453395109
1826	 0.432554483684153
1827	 0.432554071766069
1828	 0.432495022467267
1829	 0.432473091465322
1830	 0.432415279844435
1831	 0.435719916950259
1832	 0.435890378276188
1833	 0.436037912128951
1834	 0.436018486480241
1835	 0.435868729391451
1836	 0.435782071666522
1837	 0.435562878098069
1838	 0.435425661380872
1839	 0.435427694494695
1840	 0.435239875333665
1841	 0.435067438360309
1842	 0.434922313106648
1843	 0.434797612007461
1844	 0.434709569502098
1845	 0.434615526973971
1846	 0.434577501175555
1847	 0.434466934423193
1848	 0.434353974598892
1849	 0.434149351338082
1850	 0.433879690011798
1851	 0.43346012301299
1852	 0.433079874370099
1853	 0.432721395755427
1854	 0.432332077820014
1855	 0.432044953781099
1856	 0.431596611512195
1857	 0.430989367458155
1858	 0.430430695288113
1859	 0.429881594065598
1860	 0.429242758898868
1861	 0.428531093828803
1862	 0.427772649729758
1863	 0.4267443459854
1864	 0.425633989687039
1865	 0.424478381647488
1866	 0.423226628391621
1867	 0.421873714697848
1868	 0.420496466993782
1869	 0.41890533188725
1870	 0.41713240336951
1871	 0.415328970121667
1872	 0.413346274643467
1873	 0.411301280733046
1874	 0.409143152246503
1875	 0.406870406274248
1876	 0.404560221575662
1877	 0.402003295090872
1878	 0.399251137821615
1879	 0.396351234786557
1880	 0.393242555811629
1881	 0.389852578445683
1882	 0.38638353966566
1883	 0.382637239009956
1884	 0.37863276571156
1885	 0.374540700146049
1886	 0.370113697792875
1887	 0.365489309079207
1888	 0.360780882998696
1889	 0.355946205854243
1890	 0.350903086796674
1891	 0.34580033473463
1892	 0.340539807400289
1893	 0.335292285641644
1894	 0.330042764180251
1895	 0.324723207064462
1896	 0.31958881074484
1897	 0.314570996096272
1898	 0.309682843597299
1899	 0.305041200523618
1900	 0.300648875034464
1901	 0.296494260681343
1902	 0.292638853296104
1903	 0.289145051706915
1904	 0.285855972950026
1905	 0.282941812298813
1906	 0.280447962384922
1907	 0.278204141441341
1908	 0.276391319861454
1909	 0.274987635166134
1910	 0.273863720456519
1911	 0.27298987548377
1912	 0.272428196057429
1913	 0.272044826410642
1914	 0.271839952375956
1915	 0.271798180905958
1916	 0.27181507390646
1917	 0.271996152589201
1918	 0.272360511780115
1919	 0.272795075989628
1920	 0.27336433971526
1921	 0.274039766864367
1922	 0.274672893787288
1923	 0.275336079975173
1924	 0.276029404060203
1925	 0.276766229330258
1926	 0.277482176236961
1927	 0.278249724248839
1928	 0.279085238663081
1929	 0.279895308975151
1930	 0.280683956916813
1931	 0.281541483981658
1932	 0.282407485727496
1933	 0.283211659203678
1934	 0.284008958537541
1935	 0.284819998447957
1936	 0.28556392272509
1937	 0.286253209571664
1938	 0.287009101345114
1939	 0.287814963048863
1940	 0.288617347681261
1941	 0.28942894359502
1942	 0.290255627986391
1943	 0.290971627719271
1944	 0.291638406913035
1945	 0.292384594132565
1946	 0.293147173525561
1947	 0.293908412866771
1948	 0.294703583579551
1949	 0.295546392411556
1950	 0.296290828932236
1951	 0.297045670999879
1952	 0.297840128818929
1953	 0.298587161150075
1954	 0.299398167449409
1955	 0.30025140296795
1956	 0.301106722530128
1957	 0.301958543021551
1958	 0.302791312848549
1959	 0.303601364489851
1960	 0.304445443143057
1961	 0.305276470856295
1962	 0.306140557193658
1963	 0.307025658557148
1964	 0.307862797587654
1965	 0.308711588899988
1966	 0.309588144970318
1967	 0.310472528726188
1968	 0.31134371966538
1969	 0.31218602327001
1970	 0.312934701207482
1971	 0.313821378930796
1972	 0.314761849118161
1973	 0.315697752930668
1974	 0.316701316264908
1975	 0.317706180354249
1976	 0.318678386468865
1977	 0.319597643492482
1978	 0.32055145362809
1979	 0.321541562758831
1980	 0.322481451704648
1981	 0.323436063577939
1982	 0.324403922342815
1983	 0.325370753194067
1984	 0.326356304782475
1985	 0.327379070226468
1986	 0.328370399623903
1987	 0.329372985240478
1988	 0.330358414995689
1989	 0.331292315883453
1990	 0.332240283280581
1991	 0.333171783834759
1992	 0.334127831260596
1993	 0.335184683088797
1994	 0.336245160731026
1995	 0.337281219110385
1996	 0.338361497625547
1997	 0.339410101234579
1998	 0.340380003167003
1999	 0.341424242826566
2000	 0.342527706636034
2001	 0.343633876407609
2002	 0.344674538845834
2003	 0.345650442601248
2004	 0.346557065944771
2005	 0.347442262854258
2006	 0.348366281384848
2007	 0.349296431175637
2008	 0.350200112454718
2009	 0.351084891369089
2010	 0.352029043384345
2011	 0.352984357184692
2012	 0.353903418401807
2013	 0.354864430506723
2014	 0.355795479699506
2015	 0.356657907214453
2016	 0.357577324883065
2017	 0.3584887463773
2018	 0.359355778088143
2019	 0.360190111440908
2020	 0.360998253025723
2021	 0.361788602099151
2022	 0.362562886677176
2023	 0.363347543547208
2024	 0.364093523227474
2025	 0.364836092991655
2026	 0.365621320698281
2027	 0.366363868275387
2028	 0.367026674542887
2029	 0.367788988764893
2030	 0.36853212684137
2031	 0.369159808618592
2032	 0.369900069645268
2033	 0.37059694973518
2034	 0.371265505338455
2035	 0.371968518700751
2036	 0.372598677889626
2037	 0.373156364732209
2038	 0.373734153247057
2039	 0.374254199956986
2040	 0.374846035900974
2041	 0.375454505070643
2042	 0.37605041760917
2043	 0.376658305326662
2044	 0.377342931517412
2045	 0.377958565642085
2046	 0.378519710984148
2047	 0.37911717027136
2048	 0.379707657972417
2049	 0.380259524031238
2050	 0.380833115053143
2051	 0.381364421174845
2052	 0.381865565532499
2053	 0.382344679357829
2054	 0.382754585550272
2055	 0.383242089478703
2056	 0.383751835325137
2057	 0.384274848581414
2058	 0.38485100069341
2059	 0.385395175873487
2060	 0.385957565693006
2061	 0.386487390216961
2062	 0.387018710133452
2063	 0.387553148771589
2064	 0.387966958414511
2065	 0.388465895314809
2066	 0.388960398374381
2067	 0.389462498237429
2068	 0.389919104130238
2069	 0.390356474870681
2070	 0.390822534648755
2071	 0.391250306413644
2072	 0.391711030423473
2073	 0.392324202750921
2074	 0.392778936347394
2075	 0.393113032348207
2076	 0.393450583232816
2077	 0.393850325133817
2078	 0.394234859940021
2079	 0.394657406631679
2080	 0.395100447636472
2081	 0.395479052032839
2082	 0.395742205950061
2083	 0.396103518001111
2084	 0.396490777431734
2085	 0.396900864808426
2086	 0.397375133352508
2087	 0.397800341561402
2088	 0.398220190635816
2089	 0.398627979914637
2090	 0.399025392286841
2091	 0.399389447718159
2092	 0.399730201059094
2093	 0.400079564140612
2094	 0.400396328387878
2095	 0.400707043795396
2096	 0.401014472218811
2097	 0.401306803728904
2098	 0.401654484857406
2099	 0.402020705925599
2100	 0.402420200803232
2101	 0.402878784617384
2102	 0.403311095578264
2103	 0.403769702463213
2104	 0.404144489995123
2105	 0.404497899921339
2106	 0.404841515728819
2107	 0.405094548417566
2108	 0.405424360851
2109	 0.405798150838105
2110	 0.406157564420667
2111	 0.406558991063905
2112	 0.406830900109826
2113	 0.407068597231592
2114	 0.407286085696616
2115	 0.407569014704785
2116	 0.407910635754355
2117	 0.408184928696225
2118	 0.40838876908699
2119	 0.408756110402017
2120	 0.409148265476538
2121	 0.409550130897047
2122	 0.410208542132457
2123	 0.410619430050615
2124	 0.410830129071929
2125	 0.411125509486018
2126	 0.41138875209995
2127	 0.411601267556184
2128	 0.411932883833124
2129	 0.412237300142196
2130	 0.412421374707797
2131	 0.412572515484909
2132	 0.412666935668942
2133	 0.412670984879462
2134	 0.412668088376191
2135	 0.412649424882775
2136	 0.412574996442149
2137	 0.412386047649122
2138	 0.412296659646496
2139	 0.412206670760668
2140	 0.412147826913845
2141	 0.412207222295036
2142	 0.412135946831192
2143	 0.412022263719936
2144	 0.41186539508404
2145	 0.411639581983586
2146	 0.411406176335584
2147	 0.411167583944963
2148	 0.410846348777188
2149	 0.410513072052571
2150	 0.410154307791119
2151	 0.409835056423631
2152	 0.409494000205308
2153	 0.409126924421227
2154	 0.408760658322012
2155	 0.408339556818409
2156	 0.407861456102085
2157	 0.40742911466969
2158	 0.406999077199764
2159	 0.406513629294448
2160	 0.406067661023545
2161	 0.405500537532503
2162	 0.404766291358326
2163	 0.404174556934071
2164	 0.403562304650173
2165	 0.402993837940829
2166	 0.402530714106332
2167	 0.402037801927508
2168	 0.401547587446592
2169	 0.401063133097199
2170	 0.400567808363533
2171	 0.400033946850711
2172	 0.399418930509065
2173	 0.398956143659421
2174	 0.398446066640048
2175	 0.39794044647824
2176	 0.397409408383176
2177	 0.396862802270563
2178	 0.396350029434497
2179	 0.395821846596944
2180	 0.395367922232044
2181	 0.39504791502927
2182	 0.394549388324441
2183	 0.394008316721652
2184	 0.393434338011269
2185	 0.392772053531816
2186	 0.392084886355676
2187	 0.391312039436994
2188	 0.390619527177645
2189	 0.389893822322788
2190	 0.38920650035016
2191	 0.388719334668318
2192	 0.388148182635307
2193	 0.387395394195275
2194	 0.386604331793141
2195	 0.385651176796478
2196	 0.384704240499418
2197	 0.383809836296345
2198	 0.382965565393767
2199	 0.382100426960495
2200	 0.381260679469181
2201	 0.380301897004154
2202	 0.379301400243754
2203	 0.37830704647307
2204	 0.37716201797616
2205	 0.376223092670471
2206	 0.375252318131293
2207	 0.374552868639012
2208	 0.373996992473535
2209	 0.373649520705066
2210	 0.373567331520914
2211	 0.373581525195446
2212	 0.373810089811764
2213	 0.374082736688637
2214	 0.374594744917287
2215	 0.374983103130554
2216	 0.37549475303509
2217	 0.375727898259557
2218	 0.375940947564217
2219	 0.376161592040339
2220	 0.376226742697934
2221	 0.376377011616701
2222	 0.376442340138391
2223	 0.376438799293349
2224	 0.376400896706947
2225	 0.376342284060759
2226	 0.376193854443632
2227	 0.375894247650475
2228	 0.375734380736619
2229	 0.375588492111895
2230	 0.375453895952362
2231	 0.375451511674247
2232	 0.375324598640087
2233	 0.375079651784419
2234	 0.374901568010801
2235	 0.374659881196593
2236	 0.374520837123478
2237	 0.374516784117766
2238	 0.374387290288232
2239	 0.374282840745558
2240	 0.374105697012505
2241	 0.373758420978923
2242	 0.373560998758485
2243	 0.373390303816687
2244	 0.37327323718049
2245	 0.373277644213645
2246	 0.373217921539651
2247	 0.373140686036754
2248	 0.373073495761654
2249	 0.373017574454433
2250	 0.372997377116484
2251	 0.372962984113499
2252	 0.373008986374686
2253	 0.373049601794517
2254	 0.373074511059945
2255	 0.373182890020116
2256	 0.373341443827843
2257	 0.37344542229035
2258	 0.373424658857409
2259	 0.373647161600105
2260	 0.374077442028103
2261	 0.37425609393521
2262	 0.374596705874202
2263	 0.374608303028387
2264	 0.374111632653897
2265	 0.374056556278012
2266	 0.374063705589906
2267	 0.374130916144035
2268	 0.374601709205955
2269	 0.374648718821831
2270	 0.374442660655663
2271	 0.374280867692168
2272	 0.373973670146007
2273	 0.373647041809699
2274	 0.373391393645675
2275	 0.372979281357232
2276	 0.372399242428438
2277	 0.371832207241511
2278	 0.371235510856045
2279	 0.370540897422329
2280	 0.369732705381871
2281	 0.368940114676482
2282	 0.368093251778664
2283	 0.367181039892994
2284	 0.366295876794773
2285	 0.36535305586649
2286	 0.364490952647753
2287	 0.36366091340933
2288	 0.362853430884024
2289	 0.362279547399272
2290	 0.361752636901159
2291	 0.361201080041283
2292	 0.360784803582848
2293	 0.360349384675845
2294	 0.359881778494636
2295	 0.359432707518494
2296	 0.358865404101918
2297	 0.358412319884601
2298	 0.357917767668944
2299	 0.357374130351152
2300	 0.356915891586756
2301	 0.356308812966916
2302	 0.355600191371056
2303	 0.354760966359866
2304	 0.353900775731042
2305	 0.352854618543041
2306	 0.351981408791909
2307	 0.351217836915019
2308	 0.350328120537177
2309	 0.349356829254251
2310	 0.348635586562072
2311	 0.347854656692449
2312	 0.347283717964145
2313	 0.347005322289408
2314	 0.346745163130025
2315	 0.346457715899517
2316	 0.346460678853744
2317	 0.346659588062982
2318	 0.346972057111136
2319	 0.347627790376053
2320	 0.348156401119954
2321	 0.34884331488123
2322	 0.349376824899683
2323	 0.349822166930464
2324	 0.350170324515973
2325	 0.350469593495207
2326	 0.350587793669545
2327	 0.350532184334426
2328	 0.350473663887211
2329	 0.350259241685847
2330	 0.350101968048416
2331	 0.350020324036945
2332	 0.349788375777154
2333	 0.349443908883322
2334	 0.349055534145822
2335	 0.348483299814797
2336	 0.348010116978503
2337	 0.347509611867309
2338	 0.347156704908163
2339	 0.347056874767274
2340	 0.346754749349317
2341	 0.346465448016296
2342	 0.346033750644844
2343	 0.345426136158413
2344	 0.34479072843691
2345	 0.344355001720039
2346	 0.343804309987854
2347	 0.34336306085633
2348	 0.342937671702106
2349	 0.342374989412839
2350	 0.342124529918601
2351	 0.341809426051513
2352	 0.341211636626379
2353	 0.3404643091534
2354	 0.339624697814111
2355	 0.338760235008578
2356	 0.338212341397705
2357	 0.337883467133225
2358	 0.337360997721954
2359	 0.337044527221127
2360	 0.336733144409058
2361	 0.336321900332334
2362	 0.335942560793505
2363	 0.335210324673707
2364	 0.334399011874584
2365	 0.333637282357589
2366	 0.333084297098157
2367	 0.332807104554618
2368	 0.332254254143889
2369	 0.331407450239384
2370	 0.330637264129774
2371	 0.330007486049717
2372	 0.329417669647105
2373	 0.32903468167844
2374	 0.328518575664035
2375	 0.327637942150076
2376	 0.326697513672486
2377	 0.325877544086588
2378	 0.325030258997687
2379	 0.324402014056465
2380	 0.32410459641852
2381	 0.323466696207499
2382	 0.322955772556362
2383	 0.322330861309798
2384	 0.321439151200602
2385	 0.321000673144805
2386	 0.320551967780365
2387	 0.320193760332937
2388	 0.319776532004033
2389	 0.319074476075266
2390	 0.318419161903266
2391	 0.317698737566404
2392	 0.317400047148648
2393	 0.317447422504492
2394	 0.31711838041297
2395	 0.316937938771545
2396	 0.316540133669976
2397	 0.315715703733946
2398	 0.315716922472952
2399	 0.315721716909268
2400	 0.315636874917699
2401	 0.315980692435799
2402	 0.315687794114902
2403	 0.315334148895299
2404	 0.314933561207923
2405	 0.314054207236748
2406	 0.31341670814055
2407	 0.312780087671888
2408	 0.312270125665259
2409	 0.31201367618518
2410	 0.31138876879721
2411	 0.310846392854962
2412	 0.310299401642006
2413	 0.309593457983653
2414	 0.309237578325213
2415	 0.308525427811884
2416	 0.307838076341435
2417	 0.307188513414469
2418	 0.30627142620498
2419	 0.305864888272428
2420	 0.304885842625622
2421	 0.303586358561727
2422	 0.302428373664491
2423	 0.301038452600134
2424	 0.299967689139397
2425	 0.299251511779981
2426	 0.298599786920953
2427	 0.297765494236972
2428	 0.297090211835236
2429	 0.29649656444342
2430	 0.295990163476667
2431	 0.296244056007391
2432	 0.295559619090649
2433	 0.294452469811524
2434	 0.293850013633109
2435	 0.29263315425295
2436	 0.291987258076432
2437	 0.292186714437407
2438	 0.291076565039593
2439	 0.289840529362564
2440	 0.288125583714593
2441	 0.286827453121853
2442	 0.285767339744182
2443	 0.284878793988748
2444	 0.284689469989623
2445	 0.284284870460183
2446	 0.283988400832842
2447	 0.283553305318877
2448	 0.282422020851799
2449	 0.281810461552488
2450	 0.281237659575963
2451	 0.280261152325924
2452	 0.279171204335748
2453	 0.278500545336635
2454	 0.277915020687109
2455	 0.276629224740577
2456	 0.276064417371559
2457	 0.274621297214493
2458	 0.272646865242028
2459	 0.273281935209659
2460	 0.273469197475162
2461	 0.272608877865259
2462	 0.271954762650755
2463	 0.270033923812823
2464	 0.268116633036757
2465	 0.267145301279676
2466	 0.266997725906138
2467	 0.266970571793538
2468	 0.266923845167856
2469	 0.267500390858165
2470	 0.267161945702781
2471	 0.266522165458818
2472	 0.265789787771319
2473	 0.263755175593649
2474	 0.262399480446555
2475	 0.261980141067001
2476	 0.261469379913191
2477	 0.261266965079183
2478	 0.26197271949831
2479	 0.261105932850897
2480	 0.260797011554875
2481	 0.261069542468346
2482	 0.260736983595621
2483	 0.259844471248698
2484	 0.258842248009873
2485	 0.257581847770901
2486	 0.256563967539431
2487	 0.256091872755368
2488	 0.254798229908247
2489	 0.253726902860426
2490	 0.252527650906479
2491	 0.252034569697344
2492	 0.253195514054301
2493	 0.253931326143339
2494	 0.253982765932636
2495	 0.252854467452217
2496	 0.252454378456346
2497	 0.25331819919064
2498	 0.252910568103613
2499	 0.253098446677702
2500	 0.253377926997958
