Wavelength	signature0000.asd
350	 9.79075250272934E-02
351	 0.105321450546025
352	 9.85659583865649E-02
353	 8.90402068530431E-02
354	 9.54776689512457E-02
355	 9.59285534750933E-02
356	 9.90169978436915E-02
357	 0.102538473121189
358	 9.72098089524958E-02
359	 9.57249143672283E-02
360	 9.51286367654309E-02
361	 9.40105986156121E-02
362	 9.53727221809941E-02
363	 9.30750452561061E-02
364	 9.09223502497726E-02
365	 0.092055363508807
366	 9.31304889358445E-02
367	 0.095132903505626
368	 9.26686231764366E-02
369	 8.35560050624225E-02
370	 8.76578194000265E-02
371	 9.31109619892651E-02
372	 9.47691324851946E-02
373	 9.29464221399141E-02
374	 8.86310398079728E-02
375	 8.80021786532698E-02
376	 9.08807256410696E-02
377	 8.98002885629458E-02
378	 8.63873346077008E-02
379	 8.80622302370131E-02
380	 9.47629087409743E-02
381	 8.84066921649396E-02
382	 8.62063088338771E-02
383	 0.08821168635467
384	 9.00165396231058E-02
385	 9.24352923171613E-02
386	 9.35789723134818E-02
387	 9.29880224323777E-02
388	 9.14300123435498E-02
389	 9.15100279314068E-02
390	 9.25034431923562E-02
391	 9.26507765370141E-02
392	 8.97894167189066E-02
393	 8.80431437510636E-02
394	 8.86649690472742E-02
395	 9.06647755477234E-02
396	 8.97458276483054E-02
397	 8.93947116973119E-02
398	 9.02721434013155E-02
399	 9.14488489416653E-02
400	 8.91826124426926E-02
401	 8.97134480967511E-02
402	 9.27934888702813E-02
403	 9.40211460912647E-02
404	 9.26132955651743E-02
405	 9.17313054269631E-02
406	 9.23175158206666E-02
407	 9.20753193245832E-02
408	 9.31567682079011E-02
409	 9.37304187451802E-02
410	 9.26993590663205E-02
411	 9.28062204204889E-02
412	 0.092365322161495
413	 9.22446783557343E-02
414	 9.35118158477166E-02
415	 9.31279340311679E-02
416	 9.19127679687519E-02
417	 9.12114990395796E-02
418	 9.23154731390525E-02
419	 9.29699724871297E-02
420	 9.26973932395699E-02
421	 9.20687666811748E-02
422	 9.29442436976783E-02
423	 9.31197312591449E-02
424	 9.29974780890839E-02
425	 9.33088613915345E-02
426	 9.30641569146044E-02
427	 9.32586738287509E-02
428	 9.34747963500659E-02
429	 9.27330517708008E-02
430	 9.32147442229456E-02
431	 9.35929833517597E-02
432	 9.33848169315921E-02
433	 9.36892405033093E-02
434	 9.37918789426542E-02
435	 9.36891621572676E-02
436	 9.37310350406427E-02
437	 9.49378432792883E-02
438	 9.53255746205963E-02
439	 9.48423999013501E-02
440	 9.44036933633735E-02
441	 9.43293314983969E-02
442	 9.44565310394366E-02
443	 9.46583766860698E-02
444	 0.094916061411049
445	 9.56034545862197E-02
446	 9.56927112191165E-02
447	 9.50393863893771E-02
448	 0.096411458378512
449	 9.69294549524527E-02
450	 9.66248544582736E-02
451	 0.096610831425547
452	 9.69885021195092E-02
453	 9.74248776779376E-02
454	 9.76715730679067E-02
455	 9.76349114120838E-02
456	 9.78573943121008E-02
457	 9.78975880515402E-02
458	 9.76183232403467E-02
459	 9.79092862042995E-02
460	 0.098078579418471
461	 9.81414355683687E-02
462	 9.82952099846548E-02
463	 9.83776483229851E-02
464	 9.84698160911338E-02
465	 9.85730783212058E-02
466	 9.86136038984438E-02
467	 0.098444917487224
468	 9.88498483551781E-02
469	 9.98095817355958E-02
470	 9.94804924797306E-02
471	 9.97497725762069E-02
472	 0.100185232602705
473	 0.100003891519612
474	 0.100398651482801
475	 0.100603049506029
476	 0.100610625570992
477	 0.100962878226089
478	 0.100707556159759
479	 0.100513911858388
480	 0.100840151337128
481	 0.101399519966469
482	 0.101294929576542
483	 0.10113612498391
484	 0.101651054882095
485	 0.101847458553075
486	 0.101908580436491
487	 0.102009867944862
488	 0.102245932123721
489	 0.102073304567949
490	 0.102121941013748
491	 0.102619061286724
492	 0.102789212086821
493	 0.102878077505928
494	 0.102906434104847
495	 0.102916222849628
496	 0.10325797674341
497	 0.103688014505241
498	 0.103964465386486
499	 0.103951607274401
500	 0.104637738841333
501	 0.105127889889387
502	 0.104935699819213
503	 0.104798047145086
504	 0.105213894884511
505	 0.105686663340722
506	 0.105613317230573
507	 0.105597299391441
508	 0.105977621510689
509	 0.106455446125382
510	 0.106304746037563
511	 0.106353636077462
512	 0.106598451717396
513	 0.106883423680734
514	 0.107006424376953
515	 0.107400337381995
516	 0.107771024848989
517	 0.107782338052298
518	 0.108318779408825
519	 0.108565630466221
520	 0.108495621741712
521	 0.108852249194139
522	 0.10929859967258
523	 0.109541313950668
524	 0.109517460206147
525	 0.109641165022572
526	 0.109974553800254
527	 0.110431910193847
528	 0.110834755983737
529	 0.110949718267068
530	 0.111179862041709
531	 0.111576530354637
532	 0.111785382350096
533	 0.112197430013839
534	 0.112591217199914
535	 0.112805394378022
536	 0.113157991299736
537	 0.113694533947335
538	 0.114188772719705
539	 0.114376916605077
540	 0.114736432518132
541	 0.115192787727098
542	 0.115716501607331
543	 0.116399711592581
544	 0.116732327535005
545	 0.117141622834211
546	 0.11797394602322
547	 0.118595139453947
548	 0.119055328602392
549	 0.119554209819803
550	 0.120328668867465
551	 0.121057617102172
552	 0.121776661284239
553	 0.122557394354969
554	 0.12346675549863
555	 0.124259801819499
556	 0.12509257006931
557	 0.126135416031844
558	 0.127101708083432
559	 0.128049256118816
560	 0.12901090463185
561	 0.129994858839845
562	 0.131004415449519
563	 0.132065425970479
564	 0.133196018735943
565	 0.134404777756499
566	 0.135561650117504
567	 0.136727574473979
568	 0.13798445540716
569	 0.139136393623998
570	 0.140222947209048
571	 0.141299467783183
572	 0.142425462262196
573	 0.14363697620379
574	 0.144883709704077
575	 0.146121584184031
576	 0.147350088071375
577	 0.148641011138886
578	 0.149928518049412
579	 0.151114296402147
580	 0.152343626042585
581	 0.153605579474504
582	 0.154907702522792
583	 0.15628261703086
584	 0.157444499563345
585	 0.158522149634534
586	 0.159654040760927
587	 0.16068454890712
588	 0.161817867910405
589	 0.162978211397236
590	 0.163950507904811
591	 0.164795821244987
592	 0.165809152003995
593	 0.166964876452658
594	 0.167723416755836
595	 0.168683025875939
596	 0.169694771926948
597	 0.170488848803117
598	 0.171180332686217
599	 0.172032452598735
600	 0.172985791422823
601	 0.173761290499516
602	 0.174559620105667
603	 0.175322597323482
604	 0.175991915887422
605	 0.17656271955121
606	 0.177041318066051
607	 0.17757087958716
608	 0.17824513347339
609	 0.178711203346663
610	 0.179188168096349
611	 0.179770546898915
612	 0.180393475540719
613	 0.180666998053311
614	 0.181005661441087
615	 0.181634941686947
616	 0.181980074965223
617	 0.182373449280805
618	 0.182805639494195
619	 0.183167089860083
620	 0.183580532225589
621	 0.183931985533659
622	 0.184240200678969
623	 0.18468138544171
624	 0.185138813871577
625	 0.185483279721555
626	 0.185691465374789
627	 0.186027343631061
628	 0.186459770170927
629	 0.186850580142874
630	 0.187058165228779
631	 0.187389004344162
632	 0.187776068453659
633	 0.188138866618483
634	 0.188430592959764
635	 0.18881841552108
636	 0.189188664466024
637	 0.189449685517805
638	 0.189842477254639
639	 0.190220970536359
640	 0.190568084452096
641	 0.190937549348798
642	 0.191220139871995
643	 0.191533871096572
644	 0.19193307961519
645	 0.192333174695189
646	 0.192619686972972
647	 0.192926595815821
648	 0.193367948201816
649	 0.193647784869632
650	 0.193946352762868
651	 0.194301577462008
652	 0.194637813089718
653	 0.194965208688278
654	 0.195304521044879
655	 0.19565105381525
656	 0.195946539279652
657	 0.196218708250622
658	 0.196565700685323
659	 0.197029577271508
660	 0.197279786528077
661	 0.197602286344654
662	 0.198035903197569
663	 0.198391404198705
664	 0.198710042561
665	 0.19909002879738
666	 0.199556949080097
667	 0.199961784339321
668	 0.200364614835648
669	 0.200761906087772
670	 0.201135647416401
671	 0.201488247095122
672	 0.201928112739158
673	 0.202415078057019
674	 0.20277560657792
675	 0.203160659741462
676	 0.203547082236632
677	 0.20392407960346
678	 0.204395961219359
679	 0.204790777908413
680	 0.205157900966598
681	 0.205611943190592
682	 0.206076550529133
683	 0.206548284108608
684	 0.207026352143587
685	 0.20750898396456
686	 0.208007656118226
687	 0.208503740618761
688	 0.208977232863704
689	 0.209413430953032
690	 0.209867375576781
691	 0.210356600597568
692	 0.21088401328049
693	 0.211487273780495
694	 0.212033164978794
695	 0.212478909775573
696	 0.212893364918448
697	 0.213405104327882
698	 0.213952222479764
699	 0.214457356460438
700	 0.214917569744006
701	 0.215321293231121
702	 0.215738626259091
703	 0.216243216410432
704	 0.216720021934364
705	 0.217110930334577
706	 0.217481397436224
707	 0.218004696798057
708	 0.218479224594048
709	 0.218847353840241
710	 0.219160165222521
711	 0.21966510998468
712	 0.220096188589432
713	 0.220451448457533
714	 0.220826734794755
715	 0.221206326480624
716	 0.221646212866835
717	 0.222097256804193
718	 0.222421011018797
719	 0.222808738663008
720	 0.223206936486548
721	 0.223571665188928
722	 0.223992298207872
723	 0.22433383828876
724	 0.224624761365808
725	 0.224945519677546
726	 0.225299009255404
727	 0.225652166095637
728	 0.225974957408654
729	 0.226247513943436
730	 0.226504239799204
731	 0.226766051164522
732	 0.22702842226823
733	 0.227237725482704
734	 0.227527942395112
735	 0.227838438382077
736	 0.228081788663881
737	 0.228363405714632
738	 0.228578415679326
739	 0.228747205447135
740	 0.228976377515265
741	 0.229216162438539
742	 0.229423005155082
743	 0.229586929631729
744	 0.229747402897845
745	 0.229985848573763
746	 0.23020458934347
747	 0.230318662827268
748	 0.230462270685451
749	 0.230647804584045
750	 0.230819985170825
751	 0.230908610459002
752	 0.231047042991522
753	 0.231215170009082
754	 0.231368289588077
755	 0.23145589079246
756	 0.231574476092245
757	 0.231672239708006
758	 0.231717807014771
759	 0.231819950736423
760	 0.231900357351153
761	 0.231935460668275
762	 0.23194345290399
763	 0.232033164284733
764	 0.232107858922757
765	 0.232126859298032
766	 0.232114486998596
767	 0.232125663521959
768	 0.232089629227981
769	 0.232024914042702
770	 0.232143590458953
771	 0.232206438319757
772	 0.232181004939109
773	 0.232120037530604
774	 0.232134844386916
775	 0.232151565837345
776	 0.232158851423728
777	 0.232170603845376
778	 0.232090798847846
779	 0.232057795900897
780	 0.232101592543727
781	 0.232104717294473
782	 0.232014570675347
783	 0.231925964063993
784	 0.231898636409884
785	 0.231843089241285
786	 0.231757447051534
787	 0.231723175584009
788	 0.231782447176517
789	 0.231680753264717
790	 0.231562719021376
791	 0.231497791346174
792	 0.231473899513167
793	 0.231334429290681
794	 0.231213146434358
795	 0.231165919923467
796	 0.231107553948761
797	 0.231080314079646
798	 0.230992465417975
799	 0.230817416468713
800	 0.230751370852551
801	 0.230632996591246
802	 0.230524822042954
803	 0.230508324452144
804	 0.230388015936527
805	 0.230267033841869
806	 0.230176384979807
807	 0.230083481181789
808	 0.229904791382606
809	 0.229814839358916
810	 0.229809469271063
811	 0.229651438796613
812	 0.229539284033506
813	 0.229397599590677
814	 0.229210731349109
815	 0.229210182835916
816	 0.229150302203083
817	 0.229059510049855
818	 0.229015711419788
819	 0.228932014745343
820	 0.228806400826873
821	 0.228667450165211
822	 0.228562608368903
823	 0.228539237502687
824	 0.228486071562811
825	 0.228410411674516
826	 0.228418467012224
827	 0.228176660556039
828	 0.228020879699078
829	 0.228072619786538
830	 0.2279519801546
831	 0.227884700542741
832	 0.227838031801461
833	 0.227753711167636
834	 0.227668220844993
835	 0.227636555733009
836	 0.227604620744937
837	 0.227496941692636
838	 0.227338341662457
839	 0.227260206016678
840	 0.227256844953861
841	 0.227232520791064
842	 0.227153962311965
843	 0.227120970378116
844	 0.22713523817448
845	 0.227090651181269
846	 0.226953637633136
847	 0.226904732549683
848	 0.226963228842706
849	 0.226858837900635
850	 0.226801007340548
851	 0.226754642149301
852	 0.226668758775906
853	 0.226590450696734
854	 0.226548655198498
855	 0.226511184264892
856	 0.226448636579941
857	 0.226421429152799
858	 0.226459395293418
859	 0.226501825940243
860	 0.226482384219531
861	 0.226567282736281
862	 0.226642323107436
863	 0.226667113290181
864	 0.226669228491881
865	 0.22663094158078
866	 0.226607580180408
867	 0.226628586001612
868	 0.226681093118279
869	 0.226705846868456
870	 0.226672823779568
871	 0.226622114521736
872	 0.226678687028934
873	 0.226643911289831
874	 0.226691504836712
875	 0.226882940606044
876	 0.226864223754554
877	 0.226885449610179
878	 0.226978133627311
879	 0.227094706452983
880	 0.227157778838961
881	 0.227177964812316
882	 0.227226228156644
883	 0.227358339688346
884	 0.227474312303727
885	 0.227562637058281
886	 0.227601942189045
887	 0.227608140712313
888	 0.227796338527218
889	 0.227990785418532
890	 0.228087543728641
891	 0.228077916983559
892	 0.228061688789939
893	 0.228188639277223
894	 0.228385801278316
895	 0.228427174074508
896	 0.228598030511899
897	 0.228852271852149
898	 0.229050467526515
899	 0.22903278305307
900	 0.229024699867779
901	 0.229210060774831
902	 0.229523312674095
903	 0.229603452034901
904	 0.229752134849688
905	 0.229928955628115
906	 0.230091378614657
907	 0.230302609855549
908	 0.230388442747239
909	 0.230509797558464
910	 0.230761313334849
911	 0.230946014697525
912	 0.231133916830371
913	 0.231274634089038
914	 0.231384384099557
915	 0.23170063418743
916	 0.231985935036074
917	 0.23220335055443
918	 0.232378869200965
919	 0.232525746940203
920	 0.232702563504549
921	 0.23281879418929
922	 0.232846642386745
923	 0.2331189147253
924	 0.233364358081045
925	 0.233581507310039
926	 0.233834847238998
927	 0.234037289384839
928	 0.234313931039326
929	 0.234639354271646
930	 0.23492800236408
931	 0.235143867289356
932	 0.235194655559304
933	 0.235341374915723
934	 0.235818751655063
935	 0.236166339246356
936	 0.236270285462412
937	 0.236362396919594
938	 0.236699151894027
939	 0.236926877407734
940	 0.237194448611783
941	 0.237433796647966
942	 0.237571565503678
943	 0.237986615360503
944	 0.23813587999128
945	 0.23829170019952
946	 0.238879140130764
947	 0.239195549244917
948	 0.239408583583408
949	 0.239655714207202
950	 0.240011432998854
951	 0.240399084569112
952	 0.240690187604447
953	 0.240870357945578
954	 0.241039253076009
955	 0.241479755541235
956	 0.241861942294326
957	 0.242213656515794
958	 0.242616914792891
959	 0.242680279537358
960	 0.243009286664571
961	 0.243363717907941
962	 0.243415416311321
963	 0.243787539839978
964	 0.244426149084972
965	 0.244983969988636
966	 0.245208453968194
967	 0.245485270018714
968	 0.245842196977884
969	 0.246011239114525
970	 0.246032615122008
971	 0.247041055041208
972	 0.247366613714352
973	 0.247401251413408
974	 0.247812805668979
975	 0.248374067341108
976	 0.24869951070031
977	 0.24897570506466
978	 0.249438399048005
979	 0.250071401506197
980	 0.250247939069197
981	 0.250463657305548
982	 0.250956340893611
983	 0.251175818361132
984	 0.251301672785758
985	 0.251858440095892
986	 0.252591214494632
987	 0.252412704110962
988	 0.252842537537108
989	 0.253317912081455
990	 0.253570937781113
991	 0.253907525555788
992	 0.254009909302226
993	 0.254725220505783
994	 0.255658262779073
995	 0.25568077583707
996	 0.255841019761813
997	 0.256152972505974
998	 0.256432458059139
999	 0.256562796115856
1000	 0.257174893390522
1001	 0.261010602396594
1002	 0.261292350831046
1003	 0.261408812946344
1004	 0.261561762173503
1005	 0.261927346882825
1006	 0.262344869914881
1007	 0.262712413263832
1008	 0.263114247411569
1009	 0.263531132886152
1010	 0.263936546877864
1011	 0.264307430346113
1012	 0.26461161584421
1013	 0.264946299030998
1014	 0.265327630927516
1015	 0.265549579339742
1016	 0.265831077152071
1017	 0.266102874226833
1018	 0.266150003939761
1019	 0.26639168156586
1020	 0.266833727490601
1021	 0.267189880800254
1022	 0.267487133563794
1023	 0.267765455593926
1024	 0.268087956816191
1025	 0.268334466261942
1026	 0.268653432194776
1027	 0.269131128649547
1028	 0.269510514607032
1029	 0.269689339252588
1030	 0.269902613524665
1031	 0.270214149333062
1032	 0.270488084593143
1033	 0.27073914764978
1034	 0.271099496807827
1035	 0.271247539005753
1036	 0.271504506910151
1037	 0.271981861454683
1038	 0.272261183163245
1039	 0.272449587684902
1040	 0.272755554466872
1041	 0.272989880238813
1042	 0.273074980785509
1043	 0.273341543517722
1044	 0.27366118405161
1045	 0.274020839834487
1046	 0.274384419075571
1047	 0.274690164823835
1048	 0.275003049149193
1049	 0.275166412798663
1050	 0.275342088016055
1051	 0.275672313778196
1052	 0.275927165287303
1053	 0.276177682979719
1054	 0.276449572354184
1055	 0.276716431590834
1056	 0.276968176566189
1057	 0.277342460455795
1058	 0.27769142278777
1059	 0.277939750469049
1060	 0.278168065367563
1061	 0.278316899021337
1062	 0.278495900943942
1063	 0.278830437045042
1064	 0.27913386311274
1065	 0.279479750475722
1066	 0.279881249152028
1067	 0.280158904070256
1068	 0.280454493558285
1069	 0.280744234723307
1070	 0.280979559199177
1071	 0.281150211333461
1072	 0.281421966475108
1073	 0.281493763823677
1074	 0.281882066684795
1075	 0.282572488334258
1076	 0.282928789495168
1077	 0.283264269631479
1078	 0.283503022585651
1079	 0.283531235624637
1080	 0.283813450205662
1081	 0.284262215354993
1082	 0.284677943591548
1083	 0.284983039228983
1084	 0.285113657172315
1085	 0.28534034168868
1086	 0.285529557495035
1087	 0.285796028663849
1088	 0.286122808434899
1089	 0.286479551915826
1090	 0.286816591469375
1091	 0.287102797086488
1092	 0.287332778872179
1093	 0.287601407762008
1094	 0.287848146363154
1095	 0.288173812878389
1096	 0.288544717689142
1097	 0.288836458757279
1098	 0.289088833353446
1099	 0.289231982789859
1100	 0.289500849276671
1101	 0.289799184578761
1102	 0.290098458776822
1103	 0.290468348996071
1104	 0.290848625165407
1105	 0.291050616823077
1106	 0.291255291211415
1107	 0.291527414350002
1108	 0.291794613728116
1109	 0.292158994984916
1110	 0.292499080760695
1111	 0.292736970023216
1112	 0.292995784773818
1113	 0.293251271511789
1114	 0.293459153709567
1115	 0.293727914454867
1116	 0.294032396729803
1117	 0.294327436222023
1118	 0.294657282998517
1119	 0.294954826717494
1120	 0.295239004149306
1121	 0.295531296366242
1122	 0.295792074530717
1123	 0.296059728271442
1124	 0.296332626266256
1125	 0.296554841727574
1126	 0.296768525870628
1127	 0.297008800475336
1128	 0.297271055891195
1129	 0.297599284987629
1130	 0.297893704365237
1131	 0.298217559085676
1132	 0.298509793386281
1133	 0.29877581040591
1134	 0.299019895903366
1135	 0.299253584215727
1136	 0.299484713752666
1137	 0.29968406632873
1138	 0.299926652889311
1139	 0.300182794478895
1140	 0.300458501877161
1141	 0.300758441557049
1142	 0.300972203620605
1143	 0.301150961658943
1144	 0.301331691608114
1145	 0.301516726816019
1146	 0.301636799031922
1147	 0.301870003064997
1148	 0.302207042798041
1149	 0.30244138631013
1150	 0.302675690142827
1151	 0.302925551660432
1152	 0.303100555273177
1153	 0.303321661791205
1154	 0.303635013774263
1155	 0.303885997239437
1156	 0.30408437838005
1157	 0.304318135700126
1158	 0.304577693583801
1159	 0.30477655212045
1160	 0.305023771409596
1161	 0.305306767317827
1162	 0.305579700455706
1163	 0.305865393884641
1164	 0.306140353009036
1165	 0.306415804410416
1166	 0.306694760828459
1167	 0.306959725656257
1168	 0.307250391387548
1169	 0.307562760359502
1170	 0.307864867582142
1171	 0.308187676551853
1172	 0.308484009543889
1173	 0.308764315390244
1174	 0.309041897684635
1175	 0.309300688631413
1176	 0.309569069826972
1177	 0.309848603051637
1178	 0.310111159698694
1179	 0.310372246102326
1180	 0.310611255927081
1181	 0.31086545304749
1182	 0.311118370944566
1183	 0.311367533497918
1184	 0.31159744500646
1185	 0.311891659974325
1186	 0.31223475672197
1187	 0.312517147011246
1188	 0.312827974266933
1189	 0.313098762813718
1190	 0.313291094589747
1191	 0.313519406508847
1192	 0.313771253718294
1193	 0.314011940678801
1194	 0.314245295292744
1195	 0.314483138550333
1196	 0.31468046458792
1197	 0.314897681679105
1198	 0.31513359799016
1199	 0.315362101418492
1200	 0.315616014138754
1201	 0.315932376424221
1202	 0.31616929222862
1203	 0.31636456279847
1204	 0.31658972744112
1205	 0.316771879195317
1206	 0.317011589078077
1207	 0.317317715498644
1208	 0.317580044894239
1209	 0.317847386321467
1210	 0.318101733308733
1211	 0.318349373434806
1212	 0.318568750069211
1213	 0.318746783377018
1214	 0.318958117115685
1215	 0.31918979496879
1216	 0.319390519108929
1217	 0.319578341306274
1218	 0.319781216117358
1219	 0.319965372808795
1220	 0.320090202663372
1221	 0.320275817289721
1222	 0.320504502964815
1223	 0.320712084482842
1224	 0.320924473475725
1225	 0.321132754526926
1226	 0.321351041422992
1227	 0.321545388935418
1228	 0.321710296678568
1229	 0.321904053301307
1230	 0.322110771208413
1231	 0.322296191192219
1232	 0.322481457429571
1233	 0.322675050263247
1234	 0.322843089049002
1235	 0.323024500158513
1236	 0.323232708243613
1237	 0.323487341872459
1238	 0.32368637795915
1239	 0.323877638038016
1240	 0.32406154591447
1241	 0.324201663649036
1242	 0.32439234227014
1243	 0.324614848726191
1244	 0.324815644387385
1245	 0.325044451535875
1246	 0.325229162588452
1247	 0.325345975435513
1248	 0.325533195160968
1249	 0.325770397599482
1250	 0.325949948315693
1251	 0.32614246035391
1252	 0.326319947919751
1253	 0.326408097923706
1254	 0.326555290070733
1255	 0.326728625591295
1256	 0.326950600515309
1257	 0.327125006620663
1258	 0.327305798499337
1259	 0.327473625892955
1260	 0.327615312064483
1261	 0.327774228423615
1262	 0.327944284571277
1263	 0.328104717115739
1264	 0.328270671923677
1265	 0.328411277254489
1266	 0.328535591114975
1267	 0.328664680179062
1268	 0.328783182399109
1269	 0.328894362167411
1270	 0.32898347330363
1271	 0.329109413496725
1272	 0.329264443493196
1273	 0.32938425662894
1274	 0.329508147787019
1275	 0.329636829507897
1276	 0.329710693558615
1277	 0.329827302639244
1278	 0.32996922096769
1279	 0.330175611874818
1280	 0.330289165711868
1281	 0.33039210914912
1282	 0.330474236574172
1283	 0.3304934168147
1284	 0.330548795140488
1285	 0.330625238429057
1286	 0.33067049302869
1287	 0.330681029567019
1288	 0.330734378971526
1289	 0.330814256457791
1290	 0.330857028402977
1291	 0.330898571423377
1292	 0.330947631975417
1293	 0.330946583353008
1294	 0.330994476833866
1295	 0.331102598177573
1296	 0.331183139864675
1297	 0.331267274188255
1298	 0.331350532137332
1299	 0.33145474663105
1300	 0.331500481420416
1301	 0.33156066043877
1302	 0.331626889985649
1303	 0.331659516968754
1304	 0.33166537455873
1305	 0.331678436079865
1306	 0.331670602260446
1307	 0.331679527138604
1308	 0.331692738076319
1309	 0.331703042373941
1310	 0.331709521350532
1311	 0.331732901944894
1312	 0.33177333366138
1313	 0.331790962957214
1314	 0.331809055630104
1315	 0.331824295575138
1316	 0.331823562145736
1317	 0.331826030653749
1318	 0.331854619351109
1319	 0.331846671908931
1320	 0.331810427841903
1321	 0.331771480592319
1322	 0.331698791088679
1323	 0.331645281836882
1324	 0.331584303303565
1325	 0.331550238496473
1326	 0.331529856475923
1327	 0.331521294576003
1328	 0.331490890853495
1329	 0.331463142276908
1330	 0.331422024951423
1331	 0.33136645966414
1332	 0.331301528815992
1333	 0.331229392904999
1334	 0.33115711795507
1335	 0.33108202374848
1336	 0.330990248019734
1337	 0.330890869122939
1338	 0.330789562228781
1339	 0.330661065228187
1340	 0.330548963087432
1341	 0.33046025678431
1342	 0.330350610719651
1343	 0.330238930985114
1344	 0.330113940513262
1345	 0.32996487223732
1346	 0.329824346838724
1347	 0.329695408801656
1348	 0.329540627803519
1349	 0.329366938875404
1350	 0.329204400438937
1351	 0.329030983662722
1352	 0.328845143483792
1353	 0.328647182524337
1354	 0.32845385174338
1355	 0.328249282362977
1356	 0.328006049297736
1357	 0.327815071671238
1358	 0.327662643002598
1359	 0.327470827162026
1360	 0.327273884534376
1361	 0.327088084267869
1362	 0.326892220381443
1363	 0.326695005988708
1364	 0.326541132776863
1365	 0.326323977725925
1366	 0.326095775328623
1367	 0.325796318553051
1368	 0.32547048241107
1369	 0.32507615721914
1370	 0.324610172297854
1371	 0.324120562585226
1372	 0.323598708676201
1373	 0.323014124289645
1374	 0.322425205913294
1375	 0.321721279811579
1376	 0.320922061057149
1377	 0.320068310026585
1378	 0.319137350980335
1379	 0.318158443211379
1380	 0.31712718447452
1381	 0.316060986454908
1382	 0.314945447675007
1383	 0.313777782578641
1384	 0.312663582028912
1385	 0.311536905527573
1386	 0.310473300781549
1387	 0.309414905491488
1388	 0.308473059565575
1389	 0.307594976590184
1390	 0.306765028390613
1391	 0.306014287263104
1392	 0.305290576660132
1393	 0.304596699264091
1394	 0.303949421738481
1395	 0.303415134887302
1396	 0.302785439730319
1397	 0.302184724699924
1398	 0.301488078573331
1399	 0.300723135524894
1400	 0.299919371251728
1401	 0.299103689553865
1402	 0.298164588283206
1403	 0.297147559433436
1404	 0.296062348085909
1405	 0.294846678919915
1406	 0.293622599381653
1407	 0.292323170763928
1408	 0.291020951504918
1409	 0.28970725109506
1410	 0.28854144842078
1411	 0.287534796074048
1412	 0.286704225252732
1413	 0.286146694020653
1414	 0.285846129931381
1415	 0.285870818730841
1416	 0.286131705709543
1417	 0.286532518251292
1418	 0.287236259520141
1419	 0.287862442118014
1420	 0.288655794754233
1421	 0.289302474838248
1422	 0.289978221541742
1423	 0.290529423050525
1424	 0.290987124895965
1425	 0.291421842991128
1426	 0.291776839702715
1427	 0.292148330365541
1428	 0.292496985734233
1429	 0.29282073269984
1430	 0.293114210403909
1431	 0.293423727980515
1432	 0.293695790348724
1433	 0.294010376925114
1434	 0.294380059299167
1435	 0.294695140465519
1436	 0.295008382438588
1437	 0.29530163901925
1438	 0.295540072361883
1439	 0.295810225288009
1440	 0.296091376795139
1441	 0.296365064739068
1442	 0.296659109602848
1443	 0.296928779958901
1444	 0.297170521441141
1445	 0.297430816305377
1446	 0.297678939767954
1447	 0.297892339516899
1448	 0.298137720523791
1449	 0.298334322906041
1450	 0.298499340135697
1451	 0.298700081831594
1452	 0.298866519794232
1453	 0.29901050116103
1454	 0.299150662810033
1455	 0.299277182714866
1456	 0.299411284386159
1457	 0.299532372353791
1458	 0.299668533168582
1459	 0.299830157469558
1460	 0.299942194447405
1461	 0.300023859158443
1462	 0.300135336172486
1463	 0.300223310908667
1464	 0.300350370991752
1465	 0.300497604882425
1466	 0.300677095879625
1467	 0.300880213895482
1468	 0.301098275761869
1469	 0.301359884759379
1470	 0.301611555370905
1471	 0.30186681263124
1472	 0.302120098711724
1473	 0.302364677113984
1474	 0.302648002294266
1475	 0.302947906612195
1476	 0.303256133836259
1477	 0.303607376411812
1478	 0.303937459087466
1479	 0.304256074235023
1480	 0.304580586974001
1481	 0.304905469266831
1482	 0.305240008153788
1483	 0.30557632037196
1484	 0.305914222849118
1485	 0.306279664593514
1486	 0.306609897812911
1487	 0.306915468221929
1488	 0.307232923691425
1489	 0.307535168681655
1490	 0.307836616942153
1491	 0.308142042218293
1492	 0.30845610635336
1493	 0.30875297409377
1494	 0.309035832977868
1495	 0.309305392041136
1496	 0.30954316188303
1497	 0.309766610932933
1498	 0.310021464773318
1499	 0.310304213665812
1500	 0.310574378905215
1501	 0.310799909651812
1502	 0.311021874274562
1503	 0.311247279339227
1504	 0.311489329083084
1505	 0.311774589770632
1506	 0.312047625158952
1507	 0.312283384736836
1508	 0.312474904642271
1509	 0.312700429108603
1510	 0.312925686978854
1511	 0.313137634678512
1512	 0.313368493321593
1513	 0.313566149824885
1514	 0.313714705394492
1515	 0.31391140820268
1516	 0.314124746635736
1517	 0.314322561971648
1518	 0.314537116474724
1519	 0.314735662400913
1520	 0.314917569008047
1521	 0.315094890520924
1522	 0.315270675065636
1523	 0.315438305098802
1524	 0.315596895368521
1525	 0.315751290652176
1526	 0.315897804590518
1527	 0.316046973298278
1528	 0.316177188480896
1529	 0.316331892900368
1530	 0.316514490492751
1531	 0.31667130112912
1532	 0.316841141425988
1533	 0.316973916828295
1534	 0.31704584104628
1535	 0.317177613371271
1536	 0.317318990945946
1537	 0.317473289196313
1538	 0.317689352983396
1539	 0.317851805195568
1540	 0.317991456477959
1541	 0.318120433434502
1542	 0.318224778925278
1543	 0.318325953360939
1544	 0.31839984088469
1545	 0.318505052251446
1546	 0.318610862066973
1547	 0.318731917271384
1548	 0.318896484204691
1549	 0.319031896311578
1550	 0.319177228891635
1551	 0.319286532803058
1552	 0.319359529653099
1553	 0.319434487815636
1554	 0.319456169792695
1555	 0.31953332042342
1556	 0.319648688551574
1557	 0.319755526168033
1558	 0.319904376812717
1559	 0.320019303310008
1560	 0.320115314049653
1561	 0.32019898896114
1562	 0.320242319067493
1563	 0.320318584415021
1564	 0.320411200767114
1565	 0.320494486069073
1566	 0.320597393213719
1567	 0.320690204011556
1568	 0.320758882121165
1569	 0.320832878630429
1570	 0.320910156677406
1571	 0.320991004935484
1572	 0.321070424470476
1573	 0.32115785207641
1574	 0.321276524145608
1575	 0.321357599674945
1576	 0.321411111492793
1577	 0.321442031333634
1578	 0.321469241036942
1579	 0.321511338197147
1580	 0.321593755802955
1581	 0.321703786530703
1582	 0.321800033286455
1583	 0.321881291873788
1584	 0.321941746156094
1585	 0.32198673601957
1586	 0.322029752663026
1587	 0.322094841656033
1588	 0.322153583132717
1589	 0.322214826870352
1590	 0.322270269162542
1591	 0.322293549499677
1592	 0.322335190357497
1593	 0.322382767027815
1594	 0.322441359190972
1595	 0.322527333941769
1596	 0.322614860745516
1597	 0.322695678941169
1598	 0.322769215559024
1599	 0.322820922384971
1600	 0.322898322583211
1601	 0.322968587157922
1602	 0.322969802169693
1603	 0.323001320132258
1604	 0.323023128522428
1605	 0.323020427198169
1606	 0.323105546959536
1607	 0.323155071927442
1608	 0.323129084404371
1609	 0.323149311376875
1610	 0.323150683995792
1611	 0.323176341788218
1612	 0.323276824511883
1613	 0.323328614690488
1614	 0.323378800216817
1615	 0.323433305831687
1616	 0.323450939531396
1617	 0.323505652639086
1618	 0.323543960787439
1619	 0.323574539553792
1620	 0.323616919744894
1621	 0.323668846648114
1622	 0.323708092671404
1623	 0.323753382055342
1624	 0.323773344561462
1625	 0.323765483054128
1626	 0.323808244577658
1627	 0.323856038889166
1628	 0.323934020054763
1629	 0.324004969095641
1630	 0.324004418208365
1631	 0.324045611743991
1632	 0.324127258604471
1633	 0.32416565605587
1634	 0.324141711579996
1635	 0.324129797424554
1636	 0.324121546252141
1637	 0.32410850101568
1638	 0.324186351232333
1639	 0.324250197192655
1640	 0.32422396681335
1641	 0.324224519920574
1642	 0.32421601978847
1643	 0.324219918323875
1644	 0.324255035280074
1645	 0.324274310765219
1646	 0.32428159476832
1647	 0.324298310851736
1648	 0.32431350521541
1649	 0.324329512880227
1650	 0.324358065889678
1651	 0.32437995647293
1652	 0.324393049255747
1653	 0.324410042289347
1654	 0.324420856768165
1655	 0.324442782247643
1656	 0.324471029156392
1657	 0.324503886751524
1658	 0.324550271656368
1659	 0.324592923544904
1660	 0.324657753135796
1661	 0.324686368709825
1662	 0.324682610589968
1663	 0.324692452117172
1664	 0.324686195325657
1665	 0.324679720508184
1666	 0.324687548396107
1667	 0.324684803011954
1668	 0.324678666944175
1669	 0.324650402382162
1670	 0.324600257890037
1671	 0.324563698639825
1672	 0.324488958479695
1673	 0.324462486998425
1674	 0.324495893727508
1675	 0.324493007728429
1676	 0.32450633813018
1677	 0.324495172190427
1678	 0.324423164435818
1679	 0.324405457539782
1680	 0.324431109992695
1681	 0.324415002514137
1682	 0.324392151504657
1683	 0.324388947504906
1684	 0.324376326357455
1685	 0.324351495579666
1686	 0.324348149334823
1687	 0.324325677135382
1688	 0.324254549255232
1689	 0.324223805605942
1690	 0.324231311586846
1691	 0.324206157961468
1692	 0.324183195698556
1693	 0.324140811647996
1694	 0.324062408562318
1695	 0.324013195105034
1696	 0.323969675692433
1697	 0.323922300171444
1698	 0.323877694878093
1699	 0.323848633888822
1700	 0.323823383321672
1701	 0.323799501904507
1702	 0.323798384450012
1703	 0.323775576324157
1704	 0.323748571537417
1705	 0.323700781143174
1706	 0.323627630404965
1707	 0.323578829333149
1708	 0.323518233849092
1709	 0.32347971879135
1710	 0.323487694050641
1711	 0.323431332140397
1712	 0.32334016682094
1713	 0.323278299382736
1714	 0.323197739897155
1715	 0.323127951948203
1716	 0.32307770687248
1717	 0.323028949991615
1718	 0.322983004203018
1719	 0.32288174519463
1720	 0.322837479567592
1721	 0.322760895605033
1722	 0.3226249958646
1723	 0.322567091265601
1724	 0.322508642564081
1725	 0.322380689918079
1726	 0.322269698989341
1727	 0.32224094539952
1728	 0.322159623838624
1729	 0.322063575830933
1730	 0.322023674900001
1731	 0.321895888413434
1732	 0.321727584118358
1733	 0.321624462485292
1734	 0.321535163021353
1735	 0.321371072808107
1736	 0.321260956312034
1737	 0.321190531117768
1738	 0.321072148489999
1739	 0.320950156889868
1740	 0.320836344425229
1741	 0.320702368016706
1742	 0.32056124824169
1743	 0.320434874117113
1744	 0.320308363842635
1745	 0.320136767427752
1746	 0.319998058788196
1747	 0.31992167841436
1748	 0.319803428431214
1749	 0.319663752929949
1750	 0.319525702208981
1751	 0.319363098626144
1752	 0.319201920629817
1753	 0.319037082300639
1754	 0.318900579149873
1755	 0.318771518214795
1756	 0.318641547158187
1757	 0.318550202587862
1758	 0.318413325163329
1759	 0.318244590612758
1760	 0.318117335456844
1761	 0.317936955099888
1762	 0.317810795527215
1763	 0.317711000356395
1764	 0.317562302215219
1765	 0.317478367635441
1766	 0.317421822043104
1767	 0.317284435378279
1768	 0.317111072050719
1769	 0.316972885989869
1770	 0.316838614569732
1771	 0.316700728931492
1772	 0.316632689687037
1773	 0.316579111463484
1774	 0.316460155437096
1775	 0.316360138096563
1776	 0.316297737402163
1777	 0.316162834574312
1778	 0.315967743144092
1779	 0.315787913989921
1780	 0.315668875386125
1781	 0.315576511132552
1782	 0.31559564537026
1783	 0.315555444564446
1784	 0.315467236792559
1785	 0.315386830637548
1786	 0.315298191778296
1787	 0.31523725171266
1788	 0.315196600759912
1789	 0.315150694892651
1790	 0.315136415041169
1791	 0.315059116052321
1792	 0.314913666789081
1793	 0.314795783466418
1794	 0.314719499365974
1795	 0.314673207597466
1796	 0.31466194913697
1797	 0.314618636649371
1798	 0.314553811893214
1799	 0.314509146955109
1800	 0.314480006575984
1801	 0.314425033255651
1802	 0.314407311262629
1803	 0.314452100056345
1804	 0.314476744257742
1805	 0.314587275282573
1806	 0.314631477907328
1807	 0.31451689821019
1808	 0.314472393181783
1809	 0.314374802849283
1810	 0.314272979976962
1811	 0.314277907659457
1812	 0.314194342800021
1813	 0.314171255844937
1814	 0.31414325370731
1815	 0.314095908898054
1816	 0.314069024129151
1817	 0.314040049561258
1818	 0.31401053399248
1819	 0.313954019911203
1820	 0.313882877346076
1821	 0.313856224242474
1822	 0.31381551219673
1823	 0.31378106545525
1824	 0.3138058781268
1825	 0.31381175324828
1826	 0.313731945620896
1827	 0.313690987028197
1828	 0.31365557887337
1829	 0.313552897163883
1830	 0.313470153565872
1831	 0.319108520245979
1832	 0.319102752728683
1833	 0.319051904135383
1834	 0.318982949619283
1835	 0.318880535982012
1836	 0.318813105731357
1837	 0.318788941477824
1838	 0.318670157607951
1839	 0.318523851489645
1840	 0.31835840655724
1841	 0.318127063844935
1842	 0.317937282453531
1843	 0.317826736321732
1844	 0.317860078689167
1845	 0.317740005985026
1846	 0.317582854520427
1847	 0.317434400473939
1848	 0.31723913812804
1849	 0.31704960941202
1850	 0.316844069529328
1851	 0.316623452646481
1852	 0.316329587477338
1853	 0.316043600044275
1854	 0.315751849848931
1855	 0.31547797133686
1856	 0.315175966294072
1857	 0.314919254576534
1858	 0.314497092227007
1859	 0.31400930650351
1860	 0.313466919573558
1861	 0.312817318925885
1862	 0.312116158166269
1863	 0.311421160756089
1864	 0.310687194872143
1865	 0.309847403900557
1866	 0.308902079778814
1867	 0.307924152903272
1868	 0.306866158433834
1869	 0.305771358615482
1870	 0.304657855820037
1871	 0.303463160297504
1872	 0.302142851817365
1873	 0.300652229878192
1874	 0.299033942562481
1875	 0.297382321399254
1876	 0.29575511388097
1877	 0.294088107063419
1878	 0.292300982205134
1879	 0.290435665265345
1880	 0.288538740969162
1881	 0.286548290459393
1882	 0.28443617998069
1883	 0.282246354392088
1884	 0.279976175193242
1885	 0.277592585128058
1886	 0.275054867492206
1887	 0.272485342519395
1888	 0.269808632737477
1889	 0.267006054299846
1890	 0.264043974328593
1891	 0.261049081085906
1892	 0.257926698612719
1893	 0.254665022304174
1894	 0.251450590354232
1895	 0.248266033318661
1896	 0.245099737895888
1897	 0.242078102097782
1898	 0.238961389998586
1899	 0.235858497416068
1900	 0.23289305527268
1901	 0.229985579111177
1902	 0.227153490954389
1903	 0.224586468508128
1904	 0.222176764316888
1905	 0.219952085332879
1906	 0.217972136441013
1907	 0.216152877394355
1908	 0.214536075581736
1909	 0.213134663503364
1910	 0.211928978930578
1911	 0.210901696499946
1912	 0.210063376901843
1913	 0.209422744002701
1914	 0.208970568710811
1915	 0.208637753891499
1916	 0.208470223667011
1917	 0.208399993813591
1918	 0.208429032540291
1919	 0.208595144878098
1920	 0.208843707935559
1921	 0.209121890799781
1922	 0.209467816548945
1923	 0.209833157695473
1924	 0.21022541573389
1925	 0.210597230160466
1926	 0.211077094896069
1927	 0.211585431098203
1928	 0.212069248009683
1929	 0.212565330431559
1930	 0.212981989244766
1931	 0.213365660568585
1932	 0.213798517455443
1933	 0.214260606160535
1934	 0.214749906074407
1935	 0.2153138799509
1936	 0.215847159296183
1937	 0.216353077756394
1938	 0.216864747724061
1939	 0.217326601159284
1940	 0.217810810956225
1941	 0.218278836555467
1942	 0.218721732828445
1943	 0.219176499599763
1944	 0.219702814440908
1945	 0.220243863937731
1946	 0.220817747285933
1947	 0.221372994993337
1948	 0.221977922353438
1949	 0.222518995573971
1950	 0.223018228583693
1951	 0.223522599809141
1952	 0.223944526103484
1953	 0.224376747953465
1954	 0.224856575781802
1955	 0.225323972493627
1956	 0.225827385402558
1957	 0.226339289282259
1958	 0.226822122428347
1959	 0.227234150209629
1960	 0.227712006856142
1961	 0.228193881559172
1962	 0.228734360335899
1963	 0.22929958221266
1964	 0.229904982988408
1965	 0.230542975072725
1966	 0.231094443230804
1967	 0.231626594263897
1968	 0.232246494511084
1969	 0.232860151950008
1970	 0.233488460300054
1971	 0.234121256590465
1972	 0.234806566628184
1973	 0.235394869911937
1974	 0.235921966000028
1975	 0.236501347795032
1976	 0.236994926296287
1977	 0.237557449781694
1978	 0.238179959346334
1979	 0.238742522105526
1980	 0.239388397078514
1981	 0.240019943354049
1982	 0.240657921799039
1983	 0.241308765266417
1984	 0.241985808702979
1985	 0.242681501340412
1986	 0.243365667318632
1987	 0.24407425809863
1988	 0.244765015580787
1989	 0.245409212023787
1990	 0.246010792539714
1991	 0.246568312658622
1992	 0.247191352912692
1993	 0.247869405674923
1994	 0.248553365685094
1995	 0.249219836862709
1996	 0.249897188509014
1997	 0.250567803071971
1998	 0.251183769244116
1999	 0.251872103686514
2000	 0.252602832641723
2001	 0.253418225635768
2002	 0.254100386515805
2003	 0.254752073930815
2004	 0.255393638274498
2005	 0.255843893921383
2006	 0.256352744348731
2007	 0.256935990552348
2008	 0.257501276627676
2009	 0.258064395479938
2010	 0.258677584357756
2011	 0.259337479199999
2012	 0.259945041204259
2013	 0.2605750414662
2014	 0.261159425769056
2015	 0.261709614607054
2016	 0.262225987982001
2017	 0.26273560918048
2018	 0.263238838555748
2019	 0.263773815089119
2020	 0.264350857555579
2021	 0.264914718038823
2022	 0.265573063085342
2023	 0.266082212121122
2024	 0.266456666991849
2025	 0.266923611453631
2026	 0.267368201248228
2027	 0.267828221284294
2028	 0.268334130966572
2029	 0.268864237979337
2030	 0.269314457810926
2031	 0.269690247403433
2032	 0.270031574123169
2033	 0.270480385946448
2034	 0.270929844866312
2035	 0.271320574574016
2036	 0.271767562961784
2037	 0.272264150244296
2038	 0.272700765053384
2039	 0.273184664121882
2040	 0.27356968826575
2041	 0.273835717477111
2042	 0.274170854607539
2043	 0.274513730237407
2044	 0.274793724725136
2045	 0.275116364622021
2046	 0.275420121494863
2047	 0.275735938840417
2048	 0.276107396618508
2049	 0.276430204774855
2050	 0.276784099790477
2051	 0.277080359375349
2052	 0.277250021521428
2053	 0.277530229997513
2054	 0.277876593030974
2055	 0.278170180711194
2056	 0.278505168760856
2057	 0.278793586996483
2058	 0.278989477896056
2059	 0.279258590807887
2060	 0.279586775766902
2061	 0.279879814362279
2062	 0.280270651424
2063	 0.280566097265983
2064	 0.280896734215009
2065	 0.281286451695525
2066	 0.281573591551762
2067	 0.281821849025111
2068	 0.282092561256709
2069	 0.28225316215608
2070	 0.282525307360558
2071	 0.282914649373495
2072	 0.283243981225716
2073	 0.283651311945585
2074	 0.283921230491944
2075	 0.284091716115147
2076	 0.284207578215224
2077	 0.284416965086423
2078	 0.284706819238415
2079	 0.28497357719784
2080	 0.285320932854601
2081	 0.285622814382199
2082	 0.285859961092959
2083	 0.286068199080463
2084	 0.286323424457714
2085	 0.286513907504854
2086	 0.28655141053828
2087	 0.286726553986828
2088	 0.286961924653711
2089	 0.287179121753129
2090	 0.28746471020509
2091	 0.287708273170337
2092	 0.287898223197748
2093	 0.288170291526707
2094	 0.288373536775344
2095	 0.288521945126362
2096	 0.288702282300766
2097	 0.288819542775469
2098	 0.289024133438289
2099	 0.289297001410668
2100	 0.28950934480337
2101	 0.289771523433101
2102	 0.289940898598574
2103	 0.29002324925358
2104	 0.290139756720053
2105	 0.290195960890941
2106	 0.29031269227284
2107	 0.290464530819355
2108	 0.29060683982037
2109	 0.290786704673408
2110	 0.290937174549832
2111	 0.291057624223518
2112	 0.291286902427742
2113	 0.291459745711488
2114	 0.291714398755428
2115	 0.291946994094964
2116	 0.292248676622307
2117	 0.292411039080325
2118	 0.292456505150226
2119	 0.292608152220884
2120	 0.292746351874041
2121	 0.292871858447571
2122	 0.29307340496501
2123	 0.293259923970018
2124	 0.293380217860806
2125	 0.293516302390669
2126	 0.293711854288906
2127	 0.293883379458453
2128	 0.293913799160151
2129	 0.29393336517533
2130	 0.293902068248389
2131	 0.293816370952865
2132	 0.293754378364754
2133	 0.293702570812912
2134	 0.293600962759302
2135	 0.293491465159003
2136	 0.293320951452149
2137	 0.293063344994094
2138	 0.29287419845756
2139	 0.292756036606811
2140	 0.292479856372938
2141	 0.292173683957221
2142	 0.291806992846296
2143	 0.291257385418905
2144	 0.290755062814163
2145	 0.290345210267143
2146	 0.289796875710598
2147	 0.289099191152295
2148	 0.288471366008647
2149	 0.287882755228795
2150	 0.28715740090413
2151	 0.286530692893671
2152	 0.285940474108736
2153	 0.285354879168058
2154	 0.284746793469969
2155	 0.284179955185857
2156	 0.283689998596822
2157	 0.283124360267724
2158	 0.282513667674085
2159	 0.281931019382059
2160	 0.281328480649986
2161	 0.280770398334964
2162	 0.280189527521455
2163	 0.279706973607116
2164	 0.279300509184632
2165	 0.278891322832764
2166	 0.278569738158791
2167	 0.278221942743209
2168	 0.277819378538793
2169	 0.277485005125664
2170	 0.277225401048146
2171	 0.27705696022025
2172	 0.276993320811419
2173	 0.276844117318584
2174	 0.27660731346928
2175	 0.276292124326469
2176	 0.276009760207042
2177	 0.275655090110124
2178	 0.275338639958089
2179	 0.275099750622198
2180	 0.274720773825245
2181	 0.274244535260134
2182	 0.27381119257281
2183	 0.273361722642318
2184	 0.272868782614545
2185	 0.272439748352169
2186	 0.271831014663843
2187	 0.271057729325032
2188	 0.270296083530966
2189	 0.269408095508976
2190	 0.268608165417051
2191	 0.267724972195774
2192	 0.266801762958876
2193	 0.265897784268189
2194	 0.26495205586278
2195	 0.263979453001944
2196	 0.263001065882836
2197	 0.261933313519971
2198	 0.260727646380007
2199	 0.259590030150681
2200	 0.258484675791784
2201	 0.257262712854151
2202	 0.25589978268233
2203	 0.254756868431114
2204	 0.253433712863966
2205	 0.25259685669494
2206	 0.251998114357752
2207	 0.251713867275969
2208	 0.251766849451044
2209	 0.252036323307163
2210	 0.2525617403946
2211	 0.253388040747061
2212	 0.254619898468911
2213	 0.255890971310214
2214	 0.257560591365013
2215	 0.259108662601757
2216	 0.260767727229135
2217	 0.262265674067026
2218	 0.263719061056097
2219	 0.264956609595325
2220	 0.266036958457551
2221	 0.267089393829299
2222	 0.267887767143655
2223	 0.268526147992012
2224	 0.269147360759081
2225	 0.269641732645951
2226	 0.269990670621667
2227	 0.27027041051748
2228	 0.270506527417292
2229	 0.270530974670039
2230	 0.270587795205948
2231	 0.270656870544476
2232	 0.270665590100405
2233	 0.270565918954527
2234	 0.270519466269321
2235	 0.270513174592531
2236	 0.270447921604433
2237	 0.270314932352764
2238	 0.270215292989363
2239	 0.270065038652412
2240	 0.270010839212133
2241	 0.270042089728374
2242	 0.270048113544761
2243	 0.270128825057202
2244	 0.270126940533651
2245	 0.270064455402383
2246	 0.269976876395905
2247	 0.269962835750988
2248	 0.269992373484118
2249	 0.270107190255683
2250	 0.270357039052528
2251	 0.270539252971516
2252	 0.270627495941763
2253	 0.270594167423589
2254	 0.270532353191117
2255	 0.270616767247458
2256	 0.270719390014449
2257	 0.270749410039621
2258	 0.270880544365728
2259	 0.270845884015008
2260	 0.270608583442975
2261	 0.270513999894887
2262	 0.270419337977499
2263	 0.270346768281012
2264	 0.270314538170944
2265	 0.270252415716672
2266	 0.270250820655431
2267	 0.270164186775459
2268	 0.26996969939903
2269	 0.26987089533127
2270	 0.269802433006945
2271	 0.26967161991984
2272	 0.269665649559503
2273	 0.269483247820239
2274	 0.269066542486777
2275	 0.268755742310862
2276	 0.268350538328289
2277	 0.268057606746919
2278	 0.267928254038692
2279	 0.267715518205006
2280	 0.267546553139052
2281	 0.267299797665305
2282	 0.266937103748046
2283	 0.266625639339007
2284	 0.266467539094969
2285	 0.266154204603551
2286	 0.265734000782064
2287	 0.265260205347436
2288	 0.264681004548419
2289	 0.264156852803478
2290	 0.263772546011298
2291	 0.263559854223647
2292	 0.263419905851255
2293	 0.263139673877428
2294	 0.262704067113947
2295	 0.26227563003506
2296	 0.261732922806203
2297	 0.261234465590273
2298	 0.261205486808799
2299	 0.261215434747626
2300	 0.261086712662198
2301	 0.261032689364464
2302	 0.260763690428063
2303	 0.260217578153338
2304	 0.259808299428129
2305	 0.259405005242519
2306	 0.258924744110953
2307	 0.258356802530095
2308	 0.257913958484613
2309	 0.257417257534888
2310	 0.257046297134903
2311	 0.256832630499441
2312	 0.256579973961922
2313	 0.256347825595504
2314	 0.25618267355578
2315	 0.256077927122107
2316	 0.255953639335202
2317	 0.255819546015743
2318	 0.255804689244035
2319	 0.255879530150242
2320	 0.255924449691825
2321	 0.256079370657868
2322	 0.256143427172404
2323	 0.256174657898707
2324	 0.256061548644481
2325	 0.25584684281798
2326	 0.255701076340657
2327	 0.255455859492663
2328	 0.255272056350923
2329	 0.255166082911089
2330	 0.254998058760404
2331	 0.254735022839407
2332	 0.254564814247396
2333	 0.25445111523733
2334	 0.254392161376226
2335	 0.254529791207688
2336	 0.254425165683585
2337	 0.254189052552984
2338	 0.253963292120552
2339	 0.253585477928943
2340	 0.253195790650942
2341	 0.25271261453443
2342	 0.252557923553464
2343	 0.252298440487489
2344	 0.251850263352656
2345	 0.251434639250965
2346	 0.250650933119071
2347	 0.249946502339692
2348	 0.24946842334795
2349	 0.24905220398043
2350	 0.249035492768452
2351	 0.248838494884365
2352	 0.248546162463216
2353	 0.2485968646142
2354	 0.248244494035507
2355	 0.24781508577893
2356	 0.24761559895518
2357	 0.246970135102134
2358	 0.246544677125514
2359	 0.246227903599745
2360	 0.245578780360676
2361	 0.245067132821859
2362	 0.244743209786869
2363	 0.244388974890924
2364	 0.243985772956539
2365	 0.243652333460035
2366	 0.243195013324838
2367	 0.242860582878116
2368	 0.242611542248208
2369	 0.242363246846469
2370	 0.241980384144555
2371	 0.241378369680497
2372	 0.240726080405143
2373	 0.240035908252124
2374	 0.239543181375479
2375	 0.239119947968099
2376	 0.238543773453434
2377	 0.237777483180221
2378	 0.237276083014503
2379	 0.236725785533925
2380	 0.236094149740797
2381	 0.235822104436514
2382	 0.235295314491961
2383	 0.234690381862559
2384	 0.234462907134493
2385	 0.234320123622644
2386	 0.233975535409167
2387	 0.233636751869788
2388	 0.233260578802071
2389	 0.232718427988814
2390	 0.232490752578862
2391	 0.232592426002255
2392	 0.232540657844722
2393	 0.232867088618655
2394	 0.233036218734527
2395	 0.232529925718158
2396	 0.232189684481752
2397	 0.231485622367287
2398	 0.230870284430403
2399	 0.230585384257499
2400	 0.230042569922987
2401	 0.229523818968289
2402	 0.228866596079412
2403	 0.228286452560807
2404	 0.228160828386779
2405	 0.228140834651409
2406	 0.228039672177437
2407	 0.227755365954062
2408	 0.227124929163505
2409	 0.226555549927021
2410	 0.226009702896272
2411	 0.225446322924367
2412	 0.225212627644238
2413	 0.225229474551032
2414	 0.225176431222092
2415	 0.224895962035998
2416	 0.22460812485922
2417	 0.224005133033806
2418	 0.223287208199081
2419	 0.22304510636228
2420	 0.222401586057111
2421	 0.221253744786342
2422	 0.219796578446021
2423	 0.218435701534019
2424	 0.217560829894504
2425	 0.217330340373911
2426	 0.217231176787785
2427	 0.217106152365475
2428	 0.217086368890635
2429	 0.217595296595615
2430	 0.217276710548033
2431	 0.216635057345613
2432	 0.216161377255143
2433	 0.215570336406518
2434	 0.214916478345847
2435	 0.214073380748778
2436	 0.213389235592218
2437	 0.21225954399213
2438	 0.21148601743177
2439	 0.211336153851787
2440	 0.210556209403401
2441	 0.210238556837486
2442	 0.209869478493105
2443	 0.209528905184488
2444	 0.20956725784486
2445	 0.209282980729772
2446	 0.209039410213657
2447	 0.208642918813944
2448	 0.207968885427862
2449	 0.207515609638254
2450	 0.206715348143111
2451	 0.2057619106054
2452	 0.20459827091803
2453	 0.203258634455382
2454	 0.202756102593627
2455	 0.202615447006597
2456	 0.202743450809356
2457	 0.20334422758175
2458	 0.203472420251748
2459	 0.202734914250351
2460	 0.201841904293929
2461	 0.201377728196281
2462	 0.200581403439267
2463	 0.199945576936763
2464	 0.199933430687325
2465	 0.198847829973382
2466	 0.197475982113237
2467	 0.196677847207263
2468	 0.196013238723997
2469	 0.195975480027731
2470	 0.196605052369509
2471	 0.196950679977651
2472	 0.196645317794081
2473	 0.195864611184372
2474	 0.194831882386416
2475	 0.194339281231165
2476	 0.194004482464738
2477	 0.193828283016776
2478	 0.193905221534805
2479	 0.192561340384133
2480	 0.192291254207704
2481	 0.192196309427571
2482	 0.191923980430879
2483	 0.192571056332692
2484	 0.19208861946563
2485	 0.19077037788998
2486	 0.189799798824252
2487	 0.188735174338381
2488	 0.188004674388222
2489	 0.187007336284097
2490	 0.186466588870127
2491	 0.186417411720531
2492	 0.1859929165142
2493	 0.186326333814893
2494	 0.186141709264054
2495	 0.186234814116932
2496	 0.186533410197318
2497	 0.185640629884787
2498	 0.185174400529371
2499	 0.184464358371014
2500	 0.184447121483405
