Wavelength	signature0016.asd
350	 0.207895005775299
351	 0.2169324214286
352	 0.219818870724373
353	 0.220313326409497
354	 0.224335723827197
355	 0.211350582085128
356	 0.20963805853313
357	 0.218359495324799
358	 0.215484457706575
359	 0.217005917891312
360	 0.217988281437968
361	 0.216232175983712
362	 0.21605093904066
363	 0.213187699568646
364	 0.212356397536416
365	 0.215868623299688
366	 0.216271831502153
367	 0.217263726557203
368	 0.215822633523103
369	 0.210178109487706
370	 0.213174069790979
371	 0.216409848366357
372	 0.216701658186905
373	 0.21510459514158
374	 0.213890583022359
375	 0.214577949656952
376	 0.21789184691372
377	 0.223410418433068
378	 0.216810387763966
379	 0.213006289700336
380	 0.220276068274388
381	 0.221465427798932
382	 0.221208024729896
383	 0.219584405937495
384	 0.216876879842077
385	 0.218145325340892
386	 0.219421241321559
387	 0.220224094420946
388	 0.221884641759412
389	 0.222216395974332
390	 0.220906844230262
391	 0.219422289753422
392	 0.220628361608043
393	 0.221638973971825
394	 0.222497775855622
395	 0.223391710816239
396	 0.223715078744194
397	 0.222800628301069
398	 0.222186120792987
399	 0.223377443464504
400	 0.225339419475502
401	 0.223985957350083
402	 0.221976391636851
403	 0.225026304941054
404	 0.227016158123346
405	 0.225980761787031
406	 0.223421296900454
407	 0.224165663072302
408	 0.226027620566482
409	 0.226460396461053
410	 0.225076943724429
411	 0.227115271261581
412	 0.22726843368232
413	 0.226463072883305
414	 0.2274139600247
415	 0.228510887485538
416	 0.228850766993022
417	 0.228619379322734
418	 0.228812001688414
419	 0.229247532114276
420	 0.22979964764382
421	 0.230232957989419
422	 0.230107951292396
423	 0.230265599429192
424	 0.230831680425412
425	 0.231606211738716
426	 0.232152064856475
427	 0.232338492944337
428	 0.232185430304973
429	 0.23195663954992
430	 0.233169626329303
431	 0.234182935533978
432	 0.23432020213971
433	 0.234597224413678
434	 0.234751616077133
435	 0.234707774685595
436	 0.234623360596995
437	 0.235237238729434
438	 0.236006324687074
439	 0.2365874150086
440	 0.236814506863472
441	 0.236870128525439
442	 0.237559460621864
443	 0.238439900767407
444	 0.237831864607261
445	 0.238711396496663
446	 0.239484469309523
447	 0.239060408992495
448	 0.239855596751518
449	 0.24038218950989
450	 0.240484140972761
451	 0.240594653748332
452	 0.241357053864377
453	 0.242143052824112
454	 0.242577147392007
455	 0.242644479258117
456	 0.242947762101784
457	 0.243193963347945
458	 0.243324366146986
459	 0.244189540139792
460	 0.244611422243272
461	 0.244689706803388
462	 0.24498618610855
463	 0.24594320469553
464	 0.246393930743828
465	 0.246430394870051
466	 0.247134877935998
467	 0.247264069966467
468	 0.24727339834089
469	 0.24754097192841
470	 0.247790931163252
471	 0.248075108059993
472	 0.248426813465049
473	 0.248808871184207
474	 0.248858948211754
475	 0.249098520121775
476	 0.249664941910471
477	 0.250300560165355
478	 0.250082675378671
479	 0.24997058539213
480	 0.250519401363982
481	 0.251088282774383
482	 0.251330320043326
483	 0.251400122534391
484	 0.251638652744573
485	 0.252356656537478
486	 0.252737137068404
487	 0.252773239882816
488	 0.253087849406428
489	 0.2537852791336
490	 0.254269063583094
491	 0.254291576421436
492	 0.254390174291326
493	 0.254679533610037
494	 0.254807933101019
495	 0.254587041222892
496	 0.255272327352971
497	 0.255700751576329
498	 0.255673240800958
499	 0.25580898029742
500	 0.256326536936407
501	 0.256910998359275
502	 0.257277570295466
503	 0.257348666251744
504	 0.257355324121197
505	 0.257637320271242
506	 0.258321601558925
507	 0.258466047938488
508	 0.258778082658745
509	 0.259259731153542
510	 0.259325686083361
511	 0.259448467634951
512	 0.259637961033793
513	 0.259885725783481
514	 0.26031843969615
515	 0.260766104244212
516	 0.26100726135639
517	 0.260983213339013
518	 0.261536369927181
519	 0.261796444771594
520	 0.26173346629277
521	 0.262130843253568
522	 0.262449051842375
523	 0.262654351512306
524	 0.2628347626004
525	 0.263150303907435
526	 0.263457198571579
527	 0.263769954629276
528	 0.264145130571122
529	 0.264507587519822
530	 0.264792585834912
531	 0.264994184024391
532	 0.265173491313832
533	 0.265698328318273
534	 0.266214520623842
535	 0.266469260297164
536	 0.266907755927234
537	 0.267258852316904
538	 0.267533374239783
539	 0.267877916393787
540	 0.268367888888213
541	 0.268921505142402
542	 0.269451664387444
543	 0.269886473419602
544	 0.270331031644827
545	 0.270849317954599
546	 0.271447922824701
547	 0.271966106613891
548	 0.272736426693586
549	 0.2736519227808
550	 0.274387476011846
551	 0.275258085695401
552	 0.276038756673784
553	 0.27669685318516
554	 0.277597101235607
555	 0.278429544600978
556	 0.279279127588727
557	 0.280277774634829
558	 0.281253725781335
559	 0.282300560745496
560	 0.283388384020075
561	 0.284411187016785
562	 0.285612554239651
563	 0.286775414154494
564	 0.287824477037306
565	 0.289109812116108
566	 0.290321710000816
567	 0.291463299295133
568	 0.292656494927744
569	 0.294027107427768
570	 0.295336286886964
571	 0.296559691153853
572	 0.297904878451403
573	 0.299537558221212
574	 0.30123886665
575	 0.302829517933975
576	 0.304397983899122
577	 0.306063657301243
578	 0.307781263508894
579	 0.309406869214504
580	 0.310751293609452
581	 0.312137519939898
582	 0.313628623563363
583	 0.31492766826337
584	 0.316129628193853
585	 0.317340685157379
586	 0.318585478866824
587	 0.319609217888617
588	 0.320809732443961
589	 0.32213420390417
590	 0.323294094675481
591	 0.32438084272162
592	 0.325511406577545
593	 0.32667537519246
594	 0.327658503182311
595	 0.328747115902678
596	 0.32976418129838
597	 0.330542520483628
598	 0.331495790425655
599	 0.332426438195912
600	 0.333231422977682
601	 0.333902886651437
602	 0.334669105754338
603	 0.335447596606858
604	 0.33610811895961
605	 0.336494146070191
606	 0.336939588175142
607	 0.337584604331502
608	 0.338368646017634
609	 0.338665930909066
610	 0.339042298137472
611	 0.339701498573357
612	 0.340440324194104
613	 0.340762781803693
614	 0.341072194049515
615	 0.341659826526993
616	 0.342165943214415
617	 0.342536696903869
618	 0.342937447905269
619	 0.343551335268211
620	 0.343987947315774
621	 0.344374753598875
622	 0.344808396466288
623	 0.345305573095624
624	 0.345729360604914
625	 0.34609798790004
626	 0.346480708931059
627	 0.346988714212976
628	 0.347500278450007
629	 0.34796050005539
630	 0.3483643780853
631	 0.348777183968916
632	 0.349247164342838
633	 0.34976792569588
634	 0.350265099318578
635	 0.350767841088096
636	 0.351279004727348
637	 0.351805619621834
638	 0.352384765751783
639	 0.352981799140501
640	 0.353559503055904
641	 0.354093283421071
642	 0.354697296487485
643	 0.355296838529144
644	 0.355848270764401
645	 0.356396994815862
646	 0.356908028480777
647	 0.357439421911047
648	 0.358022646427957
649	 0.358471653476125
650	 0.358948780197819
651	 0.359488026421149
652	 0.360014631675264
653	 0.360440349689112
654	 0.360888191518372
655	 0.361405048832775
656	 0.36182933236369
657	 0.362284565535053
658	 0.362847747856755
659	 0.363502199707361
660	 0.363881247721152
661	 0.364327329686945
662	 0.364946062125311
663	 0.365605665397136
664	 0.36621750367656
665	 0.366812075584935
666	 0.367432129022457
667	 0.368090762259241
668	 0.368843070241423
669	 0.369506199193772
670	 0.369925310288114
671	 0.370570360644282
672	 0.37126146574574
673	 0.37191627329167
674	 0.372575419626844
675	 0.373081280729057
676	 0.373595607481443
677	 0.374233198443125
678	 0.374856713914441
679	 0.37551799906696
680	 0.376175445988804
681	 0.376784074455782
682	 0.377480884991963
683	 0.378226717559541
684	 0.37895497831288
685	 0.379595879032096
686	 0.380381144788844
687	 0.381213829383238
688	 0.382008890720925
689	 0.382883851975625
690	 0.383758987705532
691	 0.38461671544479
692	 0.385475316511232
693	 0.386395799654603
694	 0.387300976306653
695	 0.388170448788722
696	 0.38905472511673
697	 0.389994890526991
698	 0.390913013985068
699	 0.39175636887962
700	 0.392603339053347
701	 0.393377415993693
702	 0.394159093698535
703	 0.39504238610878
704	 0.395787604432195
705	 0.396507873538826
706	 0.397251096272615
707	 0.397972484123937
708	 0.398708470272212
709	 0.399371447532437
710	 0.399947387799552
711	 0.40065453669045
712	 0.40136011781509
713	 0.402003162645994
714	 0.402578501072463
715	 0.403225763569366
716	 0.403908664312962
717	 0.404549885141921
718	 0.405059879264486
719	 0.405614641917458
720	 0.40623683782391
721	 0.406866393043236
722	 0.407324443612636
723	 0.40774729609179
724	 0.408197269676212
725	 0.408702408217154
726	 0.409267070948687
727	 0.409771206697652
728	 0.410209487757249
729	 0.410674825032969
730	 0.411068945063964
731	 0.411470130913518
732	 0.41189603918294
733	 0.412185552265039
734	 0.41256418117928
735	 0.412960954698688
736	 0.413261385538252
737	 0.413609969158054
738	 0.413965042222693
739	 0.414297089050533
740	 0.414589621674171
741	 0.414817736908851
742	 0.415122628824764
743	 0.415518693857324
744	 0.415792325971481
745	 0.416025092879047
746	 0.416260434515983
747	 0.41652014174834
748	 0.416780395666472
749	 0.417025397571912
750	 0.417239803349852
751	 0.41742338934586
752	 0.417682209273552
753	 0.41786765497159
754	 0.417965424114869
755	 0.41814737389617
756	 0.418309082943295
757	 0.418462005232467
758	 0.418604194219841
759	 0.418625881725805
760	 0.41870867245676
761	 0.418821822394896
762	 0.418885371647166
763	 0.419072745252462
764	 0.419217029674467
765	 0.419269075700918
766	 0.41930286803397
767	 0.419359203036039
768	 0.41938201035675
769	 0.4193726801024
770	 0.419463728692252
771	 0.41950658261254
772	 0.41951873974057
773	 0.419546450747928
774	 0.419550570790515
775	 0.419561038614731
776	 0.419577164947131
777	 0.419585740272102
778	 0.419625040356722
779	 0.419662038340991
780	 0.419661211290694
781	 0.419598029532446
782	 0.41956637270241
783	 0.419545901315688
784	 0.419532028345367
785	 0.419627210048783
786	 0.41956498030186
787	 0.419427344362722
788	 0.419382954382152
789	 0.419397575202026
790	 0.41930360313756
791	 0.419185189731631
792	 0.419245796499583
793	 0.419125736448782
794	 0.418960198538169
795	 0.418867937136693
796	 0.418867305922484
797	 0.418915380340109
798	 0.418842819814808
799	 0.418597831109443
800	 0.418461779731283
801	 0.418305138537616
802	 0.418180387920387
803	 0.418148252765567
804	 0.41804258451804
805	 0.417916379809095
806	 0.417787472859748
807	 0.417650757043405
808	 0.417549007510575
809	 0.417444384959733
810	 0.417296972419962
811	 0.417086035209466
812	 0.41704815862579
813	 0.417019174353083
814	 0.416861486930026
815	 0.416668480017556
816	 0.416577244648494
817	 0.416556363114911
818	 0.416506489760412
819	 0.416320729023323
820	 0.416210072633451
821	 0.416171398806335
822	 0.416087632387413
823	 0.415995099460716
824	 0.415884371346728
825	 0.415767991946675
826	 0.415675500264992
827	 0.415546786164045
828	 0.415461918083164
829	 0.415437547585649
830	 0.415358585726335
831	 0.415336293246581
832	 0.415256022167487
833	 0.415053965117986
834	 0.414942226280501
835	 0.414899946791339
836	 0.414872543514827
837	 0.414800375727393
838	 0.414690887115212
839	 0.414601155951821
840	 0.414529374985326
841	 0.414433758778692
842	 0.414278704369581
843	 0.414223768421895
844	 0.41423847065485
845	 0.41411728583551
846	 0.414167228358466
847	 0.414162177214688
848	 0.414004709707335
849	 0.413919688720635
850	 0.413846751180387
851	 0.413813227160996
852	 0.41381167002942
853	 0.413712087818513
854	 0.413637197673661
855	 0.413583464262308
856	 0.413517276936188
857	 0.413456863509441
858	 0.413420433942124
859	 0.413391674118448
860	 0.413358453497305
861	 0.413438338560016
862	 0.413473165797729
863	 0.413436577211502
864	 0.413405956303288
865	 0.413323353876442
866	 0.413262284127149
867	 0.413258861731966
868	 0.413282949315191
869	 0.413161320883694
870	 0.413139679325622
871	 0.413290193171827
872	 0.413324964302059
873	 0.413235452909951
874	 0.413157867959566
875	 0.413214179085342
876	 0.41341707731373
877	 0.413510939787959
878	 0.413485264320249
879	 0.41344058138481
880	 0.413533114828659
881	 0.413748554964263
882	 0.413908455327208
883	 0.41387805528853
884	 0.413959422238534
885	 0.414092719818988
886	 0.414215932049935
887	 0.414301496924867
888	 0.414511886474024
889	 0.414556285567359
890	 0.414556719821507
891	 0.414841195697694
892	 0.414955354906174
893	 0.415010398484694
894	 0.41513606247507
895	 0.415389988922832
896	 0.415457406859113
897	 0.415620782066618
898	 0.415919396415731
899	 0.416056885117367
900	 0.416143548538823
901	 0.416322967604928
902	 0.416560020128321
903	 0.416594018593875
904	 0.416856323107462
905	 0.4170852425006
906	 0.417138160162566
907	 0.417298814187663
908	 0.417516649629447
909	 0.417773093116862
910	 0.4180150084699
911	 0.418122237590392
912	 0.41832495405782
913	 0.418520958218019
914	 0.418639785953485
915	 0.418910698571849
916	 0.41911775133098
917	 0.419284334406608
918	 0.419493575839521
919	 0.419777708175398
920	 0.420123318671094
921	 0.420411947141939
922	 0.420600696284206
923	 0.421002279285142
924	 0.421299957354122
925	 0.421373435152674
926	 0.421326497626408
927	 0.421724240699948
928	 0.422012483155505
929	 0.422143523838274
930	 0.422316009570303
931	 0.422776585911812
932	 0.423060089975795
933	 0.42319054673227
934	 0.423380238533126
935	 0.423602475468988
936	 0.423810641600063
937	 0.423909176215318
938	 0.423919170438987
939	 0.42440958229681
940	 0.424673104056489
941	 0.424710089069013
942	 0.424861314459875
943	 0.42526190033259
944	 0.4253733828153
945	 0.42544896288244
946	 0.425912231275905
947	 0.426167232128922
948	 0.426256498360487
949	 0.426455138421853
950	 0.426975264656693
951	 0.42734152194881
952	 0.427745627135381
953	 0.428123845711485
954	 0.42838389594461
955	 0.428813010788001
956	 0.429233072222618
957	 0.429566522593295
958	 0.429855574732823
959	 0.430384630583165
960	 0.430748758507913
961	 0.430924356300005
962	 0.431085444869239
963	 0.431453106016485
964	 0.43176848930504
965	 0.432117225856619
966	 0.432642957679414
967	 0.433239914477184
968	 0.434008021823813
969	 0.434711972787838
970	 0.435254283260721
971	 0.436196581317833
972	 0.436703884968851
973	 0.437426075686579
974	 0.438705231378047
975	 0.43921580489969
976	 0.439880356756954
977	 0.440687529917117
978	 0.441382868083628
979	 0.441761069612094
980	 0.442025685288658
981	 0.442545185067847
982	 0.443299448582576
983	 0.443686211588779
984	 0.444222753658656
985	 0.445031504511138
986	 0.445869338512603
987	 0.446231394597735
988	 0.446691711195211
989	 0.447028906044651
990	 0.447418912480891
991	 0.448348493790182
992	 0.448668187317067
993	 0.449239431039878
994	 0.450100025032007
995	 0.45058633469688
996	 0.45101889344685
997	 0.451335379872619
998	 0.451716551637736
999	 0.452327109006764
1000	 0.452591864378821
1001	 0.469296718863629
1002	 0.46985374369876
1003	 0.470333944172696
1004	 0.470619389548938
1005	 0.471040675025905
1006	 0.471436058909962
1007	 0.471727794604361
1008	 0.472237741220066
1009	 0.472668157775835
1010	 0.473125650735071
1011	 0.473501539446448
1012	 0.473886380106534
1013	 0.474135915448612
1014	 0.474424231337253
1015	 0.474780086493818
1016	 0.475130959032029
1017	 0.475595952669494
1018	 0.476142451031925
1019	 0.476568201274547
1020	 0.476924544475371
1021	 0.47719028830304
1022	 0.477321269595248
1023	 0.477644668486898
1024	 0.477988502660113
1025	 0.478433244224816
1026	 0.478775291523671
1027	 0.479190049508729
1028	 0.479499483856203
1029	 0.479665776455977
1030	 0.480025856784993
1031	 0.480501139492298
1032	 0.480880337816924
1033	 0.481240411589608
1034	 0.481628856133526
1035	 0.482021879384279
1036	 0.482364087321817
1037	 0.482637559110305
1038	 0.482964444309667
1039	 0.483304977955172
1040	 0.483603057988372
1041	 0.483911846095504
1042	 0.484348069884728
1043	 0.484726033701528
1044	 0.485054648066682
1045	 0.485427428135219
1046	 0.485767469437608
1047	 0.486161555415157
1048	 0.486434939613031
1049	 0.486714579095195
1050	 0.487175093789096
1051	 0.487497226075597
1052	 0.487826675340035
1053	 0.48821681113406
1054	 0.488639150563888
1055	 0.488941004311009
1056	 0.489326060340343
1057	 0.489766196224663
1058	 0.490097268301968
1059	 0.490390073567905
1060	 0.490662748645863
1061	 0.490977054796453
1062	 0.491401561292925
1063	 0.491828031278796
1064	 0.492292268354968
1065	 0.492667434845948
1066	 0.492924618533519
1067	 0.493245765384262
1068	 0.493575468227885
1069	 0.493900758881113
1070	 0.494290178811466
1071	 0.494760649361096
1072	 0.495126595632574
1073	 0.495463851421488
1074	 0.495867510925661
1075	 0.496237333238403
1076	 0.496646787259484
1077	 0.497111911876807
1078	 0.497443016959803
1079	 0.497861210328978
1080	 0.498314115754555
1081	 0.498655266208593
1082	 0.499009461198148
1083	 0.499348925244518
1084	 0.499581605011091
1085	 0.499874171742792
1086	 0.500240073915263
1087	 0.500595244497711
1088	 0.500996641207746
1089	 0.501241580212046
1090	 0.501475255777578
1091	 0.501763709297116
1092	 0.501991039441547
1093	 0.502304268103301
1094	 0.502659292324129
1095	 0.502863694120281
1096	 0.503079201468405
1097	 0.503351564201972
1098	 0.503634806182561
1099	 0.503987571020289
1100	 0.504275058062568
1101	 0.504509283280568
1102	 0.504778782945324
1103	 0.505027238202
1104	 0.505331928583532
1105	 0.505648519225716
1106	 0.506002768717034
1107	 0.50627012393171
1108	 0.506439075667271
1109	 0.506653812112488
1110	 0.506902850830911
1111	 0.507218602156846
1112	 0.507530479408636
1113	 0.507769351560854
1114	 0.507939286710624
1115	 0.508176565056569
1116	 0.508385631565624
1117	 0.508630475638589
1118	 0.508946962478614
1119	 0.509228055534113
1120	 0.509482064473341
1121	 0.509745771952117
1122	 0.510071288403975
1123	 0.510352929076443
1124	 0.510585454152483
1125	 0.510835056905702
1126	 0.511178194149831
1127	 0.511457405825599
1128	 0.511657325362368
1129	 0.51189907807996
1130	 0.512145753324104
1131	 0.5123106227619
1132	 0.512546046368499
1133	 0.512924917864129
1134	 0.513151456983998
1135	 0.51325811952497
1136	 0.513438492159854
1137	 0.513589872908849
1138	 0.513774374030491
1139	 0.514045556803812
1140	 0.5142472142527
1141	 0.514343719260772
1142	 0.514479378823471
1143	 0.514624325122416
1144	 0.514747765936757
1145	 0.514865258587976
1146	 0.515042058309825
1147	 0.51512846861577
1148	 0.515113839870889
1149	 0.515177196619674
1150	 0.515247327729994
1151	 0.515330709901493
1152	 0.515463541729612
1153	 0.515550355546884
1154	 0.515576128397393
1155	 0.515680601284367
1156	 0.515792159575157
1157	 0.515929239558722
1158	 0.516152503544395
1159	 0.516388944279025
1160	 0.51656876591097
1161	 0.516799590414865
1162	 0.51710334466574
1163	 0.517465847929491
1164	 0.517795619233402
1165	 0.518193651110595
1166	 0.518545316109372
1167	 0.518839864655207
1168	 0.519168779925216
1169	 0.519520036794656
1170	 0.51987999703333
1171	 0.520240329219474
1172	 0.520612061875091
1173	 0.521014993318738
1174	 0.521394581189974
1175	 0.521790320236821
1176	 0.52213106821787
1177	 0.522480580420435
1178	 0.522819199158828
1179	 0.523056895437622
1180	 0.523340868541582
1181	 0.523604409947118
1182	 0.523826656856858
1183	 0.524090245719765
1184	 0.524375042260609
1185	 0.524652861352831
1186	 0.524940207328063
1187	 0.525225603350158
1188	 0.52554494319098
1189	 0.525809822303877
1190	 0.526040187996461
1191	 0.526276494903748
1192	 0.526453677213556
1193	 0.526676244352675
1194	 0.526917909388379
1195	 0.527198332516614
1196	 0.527449001342065
1197	 0.527717641590502
1198	 0.527958288055
1199	 0.528167754005077
1200	 0.528410646744447
1201	 0.528671715706063
1202	 0.528905495088916
1203	 0.529130082191801
1204	 0.529372997727609
1205	 0.529607507335835
1206	 0.529840604642932
1207	 0.530113979828419
1208	 0.530346676253291
1209	 0.530556050296636
1210	 0.530747540858983
1211	 0.530893813333094
1212	 0.531069331838569
1213	 0.531259884659492
1214	 0.531427314740552
1215	 0.531554164659511
1216	 0.531725070486392
1217	 0.531862299016406
1218	 0.531961838968965
1219	 0.532069445009438
1220	 0.532199624594314
1221	 0.532275181971173
1222	 0.532285504290203
1223	 0.532358661746007
1224	 0.532444654938991
1225	 0.532525054479311
1226	 0.532670541807458
1227	 0.53272564074706
1228	 0.532681623394492
1229	 0.532714253157001
1230	 0.532741772093555
1231	 0.532779171302425
1232	 0.532870950689121
1233	 0.532949613609898
1234	 0.533014608805706
1235	 0.533061330870013
1236	 0.533169248591889
1237	 0.533294457064024
1238	 0.533471148950036
1239	 0.533699186111742
1240	 0.533921472447832
1241	 0.534175366318984
1242	 0.534434860538038
1243	 0.534696888332126
1244	 0.534983238837599
1245	 0.535310482556734
1246	 0.535614235269494
1247	 0.53595141528337
1248	 0.5362261416569
1249	 0.536446007382707
1250	 0.536694616058768
1251	 0.536923015188351
1252	 0.537152317588848
1253	 0.537405557869724
1254	 0.537644709679567
1255	 0.537873491401785
1256	 0.538068978532171
1257	 0.538312450377548
1258	 0.538581385005288
1259	 0.538822286086779
1260	 0.539075698616599
1261	 0.539307331708128
1262	 0.539527118589303
1263	 0.539720282843365
1264	 0.539900881622293
1265	 0.540069462049622
1266	 0.540220901789662
1267	 0.540342478568556
1268	 0.540451110673957
1269	 0.540540204536522
1270	 0.540572672159207
1271	 0.540632606653605
1272	 0.540745317394749
1273	 0.540773776613352
1274	 0.54076530387035
1275	 0.540738573213401
1276	 0.54065914602607
1277	 0.540551926561351
1278	 0.54042196155828
1279	 0.540290370232516
1280	 0.540107297982497
1281	 0.539893091743056
1282	 0.5396120320713
1283	 0.539273197177239
1284	 0.538935465716646
1285	 0.538551764348851
1286	 0.538135991607499
1287	 0.537680305336347
1288	 0.537260371805846
1289	 0.536755072732011
1290	 0.536364990109119
1291	 0.536094416327777
1292	 0.535762540592004
1293	 0.535453976955471
1294	 0.535127512915991
1295	 0.534770853138826
1296	 0.534417441279222
1297	 0.534096320971697
1298	 0.533726157069081
1299	 0.533328440710281
1300	 0.532906081124493
1301	 0.532471577449312
1302	 0.532013438820554
1303	 0.531523101133225
1304	 0.530990555829141
1305	 0.530516864050031
1306	 0.529982495261696
1307	 0.529594492851977
1308	 0.52930068408652
1309	 0.529026483904237
1310	 0.528875791892582
1311	 0.528629524339852
1312	 0.528377530525577
1313	 0.528118808609814
1314	 0.527844516906427
1315	 0.527537226387814
1316	 0.527267462017208
1317	 0.526899243472522
1318	 0.526439825125943
1319	 0.52597946456705
1320	 0.525419116532707
1321	 0.524939613570871
1322	 0.524499279199547
1323	 0.524047529159851
1324	 0.523615100844222
1325	 0.523218140131216
1326	 0.522784179620233
1327	 0.522337492889995
1328	 0.521911299839508
1329	 0.521499666407791
1330	 0.521081884800197
1331	 0.520664106527808
1332	 0.52025580358853
1333	 0.519866206377025
1334	 0.519443265189964
1335	 0.519036951636525
1336	 0.518573310955727
1337	 0.518065031938986
1338	 0.517552895899114
1339	 0.517038261587966
1340	 0.51646119089748
1341	 0.515918276176926
1342	 0.515226047705622
1343	 0.514507884978882
1344	 0.513599218100882
1345	 0.512546273292092
1346	 0.511383646669453
1347	 0.510089463423136
1348	 0.508663706164333
1349	 0.507089360280513
1350	 0.50544482688703
1351	 0.503668589512818
1352	 0.501884938348489
1353	 0.500164001686875
1354	 0.498512210775587
1355	 0.496972667134268
1356	 0.495512307463091
1357	 0.494141551123328
1358	 0.492878693378511
1359	 0.491653194573443
1360	 0.490547608453331
1361	 0.489386027989608
1362	 0.488301196880715
1363	 0.487109592197077
1364	 0.485964804072497
1365	 0.484602542551365
1366	 0.483167149959994
1367	 0.481579039188236
1368	 0.479927997741224
1369	 0.477992313559024
1370	 0.475968483898695
1371	 0.473623863286681
1372	 0.471069109784299
1373	 0.468167729232586
1374	 0.464981111209866
1375	 0.461526065545085
1376	 0.457728476909823
1377	 0.453689806579805
1378	 0.449366962012566
1379	 0.444883812919448
1380	 0.440313695415431
1381	 0.435627072374722
1382	 0.430996036591435
1383	 0.426531394419843
1384	 0.422304472307386
1385	 0.418120774765268
1386	 0.414413889683376
1387	 0.410930638172131
1388	 0.407966681893504
1389	 0.405330201685872
1390	 0.403164147586853
1391	 0.401455985616054
1392	 0.400064036074941
1393	 0.399105011889027
1394	 0.398340031720473
1395	 0.398029888525801
1396	 0.397656743559577
1397	 0.397596508107093
1398	 0.397317313211937
1399	 0.397153733895515
1400	 0.39667642404322
1401	 0.396196739038958
1402	 0.395255823944534
1403	 0.394146765015505
1404	 0.392503781803215
1405	 0.390488982311962
1406	 0.387994184096158
1407	 0.384878581843438
1408	 0.381550056166409
1409	 0.377859708366025
1410	 0.37431716423387
1411	 0.371192148175495
1412	 0.368802619194173
1413	 0.367553438485647
1414	 0.367379731258509
1415	 0.368837501963673
1416	 0.371321303828881
1417	 0.374457465799531
1418	 0.379047830452368
1419	 0.383182753327575
1420	 0.388062626688879
1421	 0.39214571367615
1422	 0.396307150784254
1423	 0.39977767300863
1424	 0.402757841704107
1425	 0.405451108287152
1426	 0.407637821518847
1427	 0.409781563090938
1428	 0.41159433727084
1429	 0.413376220293743
1430	 0.415009013033212
1431	 0.416585936247687
1432	 0.418024573177068
1433	 0.419427918764241
1434	 0.42077275497189
1435	 0.422052294836579
1436	 0.423242876498106
1437	 0.424402602414295
1438	 0.425497936304053
1439	 0.426574311659747
1440	 0.427628433949619
1441	 0.428624503532212
1442	 0.429574707153547
1443	 0.430491319153288
1444	 0.431345721521354
1445	 0.432188490981173
1446	 0.433008513719539
1447	 0.433784631314581
1448	 0.434519568648479
1449	 0.435225695070784
1450	 0.435889013789623
1451	 0.436526016741175
1452	 0.437168807177224
1453	 0.437744031345633
1454	 0.438288120392236
1455	 0.438844120878157
1456	 0.439326988145669
1457	 0.43974979240321
1458	 0.440174741677623
1459	 0.440543484534376
1460	 0.440947698613726
1461	 0.441367675094604
1462	 0.441746142561355
1463	 0.442102513834499
1464	 0.442492030539807
1465	 0.442831859374277
1466	 0.443274658473146
1467	 0.443776416677779
1468	 0.444307356093271
1469	 0.444870440639902
1470	 0.445497928560646
1471	 0.446182727902691
1472	 0.446899397244205
1473	 0.447705715920303
1474	 0.44847965374588
1475	 0.449240705662686
1476	 0.450054261220754
1477	 0.450893143102388
1478	 0.451739790388151
1479	 0.452633208803427
1480	 0.453522301404442
1481	 0.454433482703618
1482	 0.455310752051496
1483	 0.456194417124001
1484	 0.457056101679016
1485	 0.45789239148339
1486	 0.45869880291509
1487	 0.459480829487971
1488	 0.460254711060011
1489	 0.460985385086645
1490	 0.461725285582514
1491	 0.462473089202748
1492	 0.46321706178513
1493	 0.463925275904226
1494	 0.464638780514336
1495	 0.465340032805995
1496	 0.466027964203593
1497	 0.466713931750067
1498	 0.467383673402397
1499	 0.467981892522503
1500	 0.468566160147147
1501	 0.469186383847582
1502	 0.469797257717513
1503	 0.47045283344702
1504	 0.471153636160295
1505	 0.471825866913557
1506	 0.472438687032555
1507	 0.473051688898322
1508	 0.473643803783446
1509	 0.474241073850473
1510	 0.474834789228358
1511	 0.475406818513546
1512	 0.475959992496503
1513	 0.476517576219075
1514	 0.477060963057615
1515	 0.477592882584381
1516	 0.478135945174987
1517	 0.478657861810997
1518	 0.479157716615207
1519	 0.479641819204154
1520	 0.480102179394349
1521	 0.480585948403625
1522	 0.48105430049458
1523	 0.481539062282654
1524	 0.482067217047646
1525	 0.482547517481903
1526	 0.483018383298303
1527	 0.483447520168009
1528	 0.483823394124163
1529	 0.484233316680374
1530	 0.484639407035324
1531	 0.485032843735613
1532	 0.485439858538962
1533	 0.485831166330336
1534	 0.486192945444991
1535	 0.486551332558745
1536	 0.48691098325671
1537	 0.487267423453327
1538	 0.487624955465324
1539	 0.487955295981613
1540	 0.488250068814807
1541	 0.488582400070414
1542	 0.488908108316773
1543	 0.489238950997906
1544	 0.489613126131104
1545	 0.489966867739026
1546	 0.490304377688359
1547	 0.490635182454133
1548	 0.490975028629664
1549	 0.491290624746173
1550	 0.491593304867102
1551	 0.49186726073725
1552	 0.492098209701904
1553	 0.492357262720235
1554	 0.492601624305241
1555	 0.492854977923956
1556	 0.493129142879116
1557	 0.493403925885428
1558	 0.493672307808576
1559	 0.493949953169847
1560	 0.494263353248797
1561	 0.494538872359308
1562	 0.494788535338848
1563	 0.495046493652085
1564	 0.495311854142306
1565	 0.495538368955842
1566	 0.495725971057331
1567	 0.495945831796801
1568	 0.496126727168561
1569	 0.496345804199865
1570	 0.496646747115138
1571	 0.496897130228618
1572	 0.497144112576437
1573	 0.497367730046662
1574	 0.497546982370141
1575	 0.497734369572567
1576	 0.497907581816249
1577	 0.498104412753735
1578	 0.498319438700619
1579	 0.498511774363225
1580	 0.498728927136359
1581	 0.498942694613163
1582	 0.49913073358244
1583	 0.499330207867714
1584	 0.499554328488773
1585	 0.499765206692319
1586	 0.499965950868081
1587	 0.500189974140829
1588	 0.500367088715166
1589	 0.500521202647179
1590	 0.500691972465008
1591	 0.500849422802105
1592	 0.501055292108465
1593	 0.501242621400048
1594	 0.501399509193726
1595	 0.501583521056513
1596	 0.501726609563742
1597	 0.501884203383673
1598	 0.502048296685624
1599	 0.502194200241156
1600	 0.502342415463334
1601	 0.5024467611818
1602	 0.502598196833815
1603	 0.50276886681068
1604	 0.502890316245891
1605	 0.503044711793899
1606	 0.503192283165429
1607	 0.503314758736103
1608	 0.503475019212904
1609	 0.503634444514192
1610	 0.503743167964837
1611	 0.503847950268488
1612	 0.503982967861367
1613	 0.504109409927857
1614	 0.504212009794735
1615	 0.504320769669083
1616	 0.504411922098208
1617	 0.50446928282037
1618	 0.504569455511668
1619	 0.504706651710807
1620	 0.504812019819727
1621	 0.504910688590469
1622	 0.505009610432576
1623	 0.505092110899244
1624	 0.505212609489174
1625	 0.505357482633612
1626	 0.505463433847514
1627	 0.50557974708122
1628	 0.505671532736077
1629	 0.505717491403086
1630	 0.505822060024849
1631	 0.505949672556896
1632	 0.506054077414357
1633	 0.506180226746159
1634	 0.506287258463364
1635	 0.506369912319562
1636	 0.506479219181509
1637	 0.506578934757039
1638	 0.506677171643406
1639	 0.506760959710358
1640	 0.506806158923675
1641	 0.506866144545627
1642	 0.506921975426739
1643	 0.506977992011709
1644	 0.507055868473635
1645	 0.507112626266826
1646	 0.507125793827377
1647	 0.507179274555111
1648	 0.507236808381601
1649	 0.507314686559243
1650	 0.507479972001438
1651	 0.507571890245562
1652	 0.507625502660678
1653	 0.507675183076358
1654	 0.507675279530587
1655	 0.50767963902647
1656	 0.507682200258771
1657	 0.50768973566319
1658	 0.507660169207042
1659	 0.507679724834454
1660	 0.507767107591261
1661	 0.507809918631899
1662	 0.507885892354948
1663	 0.507904746469574
1664	 0.507844100869986
1665	 0.507806861147382
1666	 0.507741555038836
1667	 0.50769673253316
1668	 0.507654207958116
1669	 0.507640128540453
1670	 0.507698437086189
1671	 0.507672476199148
1672	 0.5076163888019
1673	 0.507557702531353
1674	 0.507395142178262
1675	 0.507319405651733
1676	 0.507331051203894
1677	 0.507291487038767
1678	 0.507271872793692
1679	 0.507222191469264
1680	 0.507124232788917
1681	 0.507036980725275
1682	 0.50695425103913
1683	 0.506853535682195
1684	 0.506720373852823
1685	 0.506624847838623
1686	 0.506537011639768
1687	 0.506449459607656
1688	 0.506415376110038
1689	 0.506315511163289
1690	 0.506150809591827
1691	 0.50604132664726
1692	 0.50593122832081
1693	 0.50581944979102
1694	 0.505735587171943
1695	 0.505648750456456
1696	 0.505538362423476
1697	 0.505453614555821
1698	 0.505430110407371
1699	 0.505335431002089
1700	 0.50519645626811
1701	 0.505079484330671
1702	 0.504934447407162
1703	 0.504807266290514
1704	 0.504712924223013
1705	 0.504583895167576
1706	 0.50444608009551
1707	 0.504261858742144
1708	 0.504044962456994
1709	 0.503849146802744
1710	 0.503637189324938
1711	 0.503414004201698
1712	 0.503180479552053
1713	 0.502967816259831
1714	 0.502749633609476
1715	 0.502517752368339
1716	 0.502316958446843
1717	 0.502075562802819
1718	 0.501801424325268
1719	 0.501467240593691
1720	 0.501155386824962
1721	 0.500843824990201
1722	 0.500470718456482
1723	 0.500219864151932
1724	 0.49998646647264
1725	 0.499615657825717
1726	 0.499335657353999
1727	 0.499098663992851
1728	 0.498738175992258
1729	 0.498405396906559
1730	 0.498059436586889
1731	 0.497622490725745
1732	 0.497263230993914
1733	 0.496913432697272
1734	 0.496539898096905
1735	 0.496186185081209
1736	 0.495826530899954
1737	 0.495500608452923
1738	 0.495179226634032
1739	 0.494863432290181
1740	 0.494508575003683
1741	 0.494156506847572
1742	 0.493788383555758
1743	 0.493368623249051
1744	 0.492963179516248
1745	 0.492570104667176
1746	 0.492169902528327
1747	 0.491745222958114
1748	 0.491353001429084
1749	 0.490986959252632
1750	 0.490588938091722
1751	 0.490201585109291
1752	 0.48976769693156
1753	 0.489290926488118
1754	 0.488837021976322
1755	 0.48836450185042
1756	 0.487916128546492
1757	 0.487506243036081
1758	 0.487041411964828
1759	 0.486547621032105
1760	 0.486081313517016
1761	 0.485584426890338
1762	 0.485100285445395
1763	 0.484635703770522
1764	 0.484115276256535
1765	 0.483602479251022
1766	 0.483119759196096
1767	 0.482610272620063
1768	 0.482142138352595
1769	 0.481614886951293
1770	 0.481128001991953
1771	 0.480709234904166
1772	 0.480197843752438
1773	 0.479738166945018
1774	 0.479285453993311
1775	 0.478745309813596
1776	 0.478240171217015
1777	 0.477742830616729
1778	 0.477234950879758
1779	 0.476761681650832
1780	 0.476432649164831
1781	 0.476029024365235
1782	 0.475577484214636
1783	 0.475176878219872
1784	 0.474769385429926
1785	 0.474377240868744
1786	 0.474022379589377
1787	 0.473687320187059
1788	 0.473355112995493
1789	 0.473039598419501
1790	 0.47278618323606
1791	 0.472472467015585
1792	 0.472095101773538
1793	 0.471795697264509
1794	 0.471540089866613
1795	 0.471317143977379
1796	 0.471116764988739
1797	 0.470973369717931
1798	 0.470784837501223
1799	 0.47061075635746
1800	 0.470488533806074
1801	 0.470257964612194
1802	 0.470056333746382
1803	 0.469894876186095
1804	 0.469688190322737
1805	 0.46956125619438
1806	 0.469433861858759
1807	 0.469253365669275
1808	 0.469122045766615
1809	 0.46894530083711
1810	 0.468794655880417
1811	 0.468673144226222
1812	 0.468490810133467
1813	 0.46832295262875
1814	 0.468187308021574
1815	 0.468117436002008
1816	 0.468010412860883
1817	 0.467888286310378
1818	 0.467733504040373
1819	 0.467532663071329
1820	 0.467258896399043
1821	 0.467193319635423
1822	 0.467140155091748
1823	 0.467065203786944
1824	 0.467153667767508
1825	 0.467088508944938
1826	 0.466969211460121
1827	 0.46688415984665
1828	 0.466655552892445
1829	 0.46649921887888
1830	 0.4663969569688
1831	 0.470894281158026
1832	 0.470655114348298
1833	 0.470476993764515
1834	 0.470247283428177
1835	 0.469958006894104
1836	 0.469675519796961
1837	 0.469394369694574
1838	 0.469039577287945
1839	 0.468585966931619
1840	 0.468259262646443
1841	 0.467888019255322
1842	 0.467504528204257
1843	 0.46715429612915
1844	 0.466815168527894
1845	 0.466528459820996
1846	 0.46620080421109
1847	 0.466038902485604
1848	 0.466041509361961
1849	 0.466009778660017
1850	 0.46596773414013
1851	 0.465795076356989
1852	 0.465509718071677
1853	 0.465172276843229
1854	 0.464671407294003
1855	 0.464097963641942
1856	 0.463392367608547
1857	 0.462471360928304
1858	 0.461536857366857
1859	 0.460571260991298
1860	 0.459484397189055
1861	 0.458220025451513
1862	 0.456843441162228
1863	 0.455288354678584
1864	 0.453548369003199
1865	 0.451647540931851
1866	 0.449630543127632
1867	 0.447359037038946
1868	 0.444851615297559
1869	 0.442189023718264
1870	 0.439282612295231
1871	 0.4362249206557
1872	 0.433087853585749
1873	 0.42971708904335
1874	 0.426278367430976
1875	 0.422833924662547
1876	 0.419172197705011
1877	 0.415400381995077
1878	 0.411562996215926
1879	 0.407657689382114
1880	 0.403541037450676
1881	 0.399409800679861
1882	 0.395214099840996
1883	 0.390760177733789
1884	 0.386248230547167
1885	 0.381685687855941
1886	 0.376928428985142
1887	 0.371970091173494
1888	 0.366850892611481
1889	 0.361615549673383
1890	 0.356139743839638
1891	 0.350598257048736
1892	 0.345051003013401
1893	 0.339422337323748
1894	 0.333731804465923
1895	 0.327930850192055
1896	 0.322164580797328
1897	 0.316505767486421
1898	 0.310856723424932
1899	 0.305424556506619
1900	 0.300218083047531
1901	 0.295177801762526
1902	 0.290352932843731
1903	 0.285896283137078
1904	 0.281672892999305
1905	 0.277799780084366
1906	 0.27426104782589
1907	 0.271068375426633
1908	 0.268302939360269
1909	 0.2658710962267
1910	 0.26380169720485
1911	 0.262122399967212
1912	 0.260844397394446
1913	 0.259861703358382
1914	 0.259184656190216
1915	 0.258855161950844
1916	 0.258707819221657
1917	 0.25878595939034
1918	 0.259168174749085
1919	 0.259704588486496
1920	 0.260416853442949
1921	 0.261297348730123
1922	 0.262273348808807
1923	 0.263242614665157
1924	 0.264277941753585
1925	 0.265333165084723
1926	 0.266398829130075
1927	 0.267439869664741
1928	 0.268524285846865
1929	 0.269545565072322
1930	 0.270460569929581
1931	 0.271336136664826
1932	 0.272178240849435
1933	 0.273034133791879
1934	 0.273887637136819
1935	 0.274765122551833
1936	 0.27562034835223
1937	 0.276451284967137
1938	 0.277259640676153
1939	 0.278028722846364
1940	 0.278724139017177
1941	 0.279426526585828
1942	 0.280107360000066
1943	 0.280776128237718
1944	 0.281515826415882
1945	 0.282245123941022
1946	 0.282987240485756
1947	 0.283674375476331
1948	 0.284343811860176
1949	 0.285040060049109
1950	 0.285697440646899
1951	 0.286367214104587
1952	 0.287108050562229
1953	 0.287803096431714
1954	 0.288421482455649
1955	 0.289108287091222
1956	 0.289805373900324
1957	 0.290484289099244
1958	 0.291222400538978
1959	 0.292020144239612
1960	 0.29281061868984
1961	 0.293610880245821
1962	 0.294437266751117
1963	 0.295374845984015
1964	 0.296297399234471
1965	 0.297166701378114
1966	 0.298104664358776
1967	 0.298915817769712
1968	 0.299744955161962
1969	 0.300642717652758
1970	 0.301578297525925
1971	 0.302512741211361
1972	 0.303520103151966
1973	 0.304467538593986
1974	 0.305368386560098
1975	 0.306376292593576
1976	 0.307289698634569
1977	 0.308146302122983
1978	 0.309091416313013
1979	 0.309982696990313
1980	 0.310896257544119
1981	 0.311860049223283
1982	 0.312810956952097
1983	 0.31371498297348
1984	 0.314726263181145
1985	 0.315817593055028
1986	 0.316864231441785
1987	 0.317990184952577
1988	 0.319018936285653
1989	 0.319923095571523
1990	 0.320876066439725
1991	 0.321812357222019
1992	 0.322783590329215
1993	 0.32379677537172
1994	 0.324875592495301
1995	 0.325929382658499
1996	 0.32697392696592
1997	 0.328016049830394
1998	 0.329104993723966
1999	 0.330129163065143
2000	 0.331123754297034
2001	 0.332112269596715
2002	 0.333057530225964
2003	 0.333997043352287
2004	 0.334967386268848
2005	 0.335986680048245
2006	 0.337034605692181
2007	 0.338042287960062
2008	 0.339061141973593
2009	 0.34012207777126
2010	 0.341108924169267
2011	 0.342045387685157
2012	 0.342981717528063
2013	 0.343845799345415
2014	 0.34475236599952
2015	 0.345698192065062
2016	 0.346626261366568
2017	 0.347520582718832
2018	 0.348433937359213
2019	 0.349272703149201
2020	 0.350136209542773
2021	 0.350949386394201
2022	 0.351710305373549
2023	 0.352489424041663
2024	 0.353269380079063
2025	 0.354008280082867
2026	 0.35477277605854
2027	 0.355458393743941
2028	 0.356037555650346
2029	 0.356652686258706
2030	 0.357309855122966
2031	 0.357977366051551
2032	 0.358694077723336
2033	 0.359378130516755
2034	 0.359957992213685
2035	 0.360496720460831
2036	 0.361107469893843
2037	 0.361734969828246
2038	 0.362360073105574
2039	 0.363108315455902
2040	 0.363660155198592
2041	 0.364046851686247
2042	 0.364519255970404
2043	 0.364925253188196
2044	 0.365378377515181
2045	 0.365883195508037
2046	 0.366346691915151
2047	 0.36672527533051
2048	 0.367109380020979
2049	 0.367566564011807
2050	 0.367991265520056
2051	 0.368390475914063
2052	 0.368798325794343
2053	 0.369158763100708
2054	 0.369443486796854
2055	 0.369785834662093
2056	 0.370156864046066
2057	 0.370469853905583
2058	 0.370775747957215
2059	 0.371070444650569
2060	 0.371285007919821
2061	 0.371533617196177
2062	 0.371891746422582
2063	 0.37224591451574
2064	 0.372599394357412
2065	 0.373003619050975
2066	 0.373256397635137
2067	 0.373374183356602
2068	 0.373537729728899
2069	 0.373629379921594
2070	 0.373757340843708
2071	 0.373879338066141
2072	 0.374060309889407
2073	 0.374263212091864
2074	 0.374466126297411
2075	 0.374728584481592
2076	 0.374994823670988
2077	 0.37518579217298
2078	 0.375309811546346
2079	 0.375356074861683
2080	 0.375345688957303
2081	 0.375366132232934
2082	 0.375301939426115
2083	 0.375402212726791
2084	 0.375617657542855
2085	 0.375769237860646
2086	 0.376050824904022
2087	 0.376151650171961
2088	 0.376076090359443
2089	 0.376088935269003
2090	 0.376034422044112
2091	 0.376061084849965
2092	 0.37615903353678
2093	 0.376291339861751
2094	 0.3764264621804
2095	 0.37644971322701
2096	 0.3764292214972
2097	 0.376475583119522
2098	 0.376475659729043
2099	 0.376509790727511
2100	 0.37642620888313
2101	 0.376269844673772
2102	 0.376091196329552
2103	 0.375810222763729
2104	 0.375541369754841
2105	 0.375300464911589
2106	 0.375000511702329
2107	 0.374614385313716
2108	 0.37426821443693
2109	 0.373910289274558
2110	 0.373531308233484
2111	 0.373179978426016
2112	 0.372913685662436
2113	 0.372682800179205
2114	 0.372501184746214
2115	 0.372437243711515
2116	 0.372547856588695
2117	 0.372501208485262
2118	 0.372534278434498
2119	 0.372438122783181
2120	 0.372160522346716
2121	 0.371996120867684
2122	 0.371882898780324
2123	 0.371699831387532
2124	 0.371589046056332
2125	 0.371310667131166
2126	 0.370953878953891
2127	 0.370458554739631
2128	 0.369868709997735
2129	 0.369296153470682
2130	 0.368712740134511
2131	 0.368072951273106
2132	 0.367379883034969
2133	 0.366694220245879
2134	 0.3658271461599
2135	 0.364909341764493
2136	 0.363768844348609
2137	 0.362475079907099
2138	 0.361020543393687
2139	 0.359334936733872
2140	 0.357630064359461
2141	 0.355775322980624
2142	 0.353856397917716
2143	 0.35197394579348
2144	 0.349829276770176
2145	 0.347487604590794
2146	 0.345077477267448
2147	 0.34245384159349
2148	 0.339751799320528
2149	 0.337051018340698
2150	 0.334367500387182
2151	 0.331767839004334
2152	 0.32912839261704
2153	 0.326706407132466
2154	 0.324358591902555
2155	 0.32223908569477
2156	 0.320315598775804
2157	 0.318495009652947
2158	 0.316805546712907
2159	 0.315315870082059
2160	 0.314000951772984
2161	 0.312798323435393
2162	 0.31186725062943
2163	 0.310884256977584
2164	 0.309820437166279
2165	 0.309076317005151
2166	 0.308465648936524
2167	 0.308018709757378
2168	 0.307875337584451
2169	 0.307837204675467
2170	 0.307721911893941
2171	 0.307710344324756
2172	 0.307705574348548
2173	 0.307583677407939
2174	 0.307476891280584
2175	 0.307377158789557
2176	 0.307210655216766
2177	 0.307071736900338
2178	 0.306715556852634
2179	 0.306305275559482
2180	 0.305698904934488
2181	 0.304852076452979
2182	 0.304003714482514
2183	 0.303064493926672
2184	 0.302010432287202
2185	 0.300932930103575
2186	 0.299623350702335
2187	 0.298050868327757
2188	 0.29648572919744
2189	 0.294731741653075
2190	 0.293051318859446
2191	 0.291328596081901
2192	 0.289514454261344
2193	 0.287710439012268
2194	 0.28571790148998
2195	 0.283538570506637
2196	 0.281402462395711
2197	 0.279048466055081
2198	 0.276546959185451
2199	 0.273822022566117
2200	 0.270887093673545
2201	 0.267879355771808
2202	 0.264491738854776
2203	 0.261457038792995
2204	 0.25815602960922
2205	 0.255684918087596
2206	 0.253232002784142
2207	 0.251914003062434
2208	 0.251221206165752
2209	 0.251561808496016
2210	 0.252848122004487
2211	 0.254991907363216
2212	 0.258428740026671
2213	 0.262117635425518
2214	 0.267035556163687
2215	 0.271603253042148
2216	 0.276463855324214
2217	 0.281291531369011
2218	 0.285874564289353
2219	 0.290159466467472
2220	 0.294283762273393
2221	 0.297945081427475
2222	 0.301042765067649
2223	 0.303767098703901
2224	 0.306111856800027
2225	 0.307884824908934
2226	 0.309542747633132
2227	 0.310929234791582
2228	 0.311990854235331
2229	 0.31265421669955
2230	 0.313235869421982
2231	 0.313508192936679
2232	 0.313737411595632
2233	 0.3138651068599
2234	 0.3137883699355
2235	 0.313328847631735
2236	 0.313136904194035
2237	 0.312840334573509
2238	 0.312739605129617
2239	 0.312838832708312
2240	 0.31299140067229
2241	 0.313195239660448
2242	 0.313496325552598
2243	 0.31391437757213
2244	 0.314412335138866
2245	 0.315081882864749
2246	 0.315709342187525
2247	 0.316209117713297
2248	 0.316697584103783
2249	 0.317113075808382
2250	 0.317344912062007
2251	 0.317589242375289
2252	 0.317831936016351
2253	 0.317844237148675
2254	 0.317859572699024
2255	 0.318075461966694
2256	 0.318400633868203
2257	 0.318658961427187
2258	 0.319109712346609
2259	 0.319180940730491
2260	 0.319009685091535
2261	 0.318913531794068
2262	 0.318685660245312
2263	 0.318534404657331
2264	 0.318454794990591
2265	 0.318264391637798
2266	 0.317973455930636
2267	 0.317707132066836
2268	 0.317471190747297
2269	 0.317098105043046
2270	 0.316615291865226
2271	 0.316180678878102
2272	 0.315613113789494
2273	 0.315195272287038
2274	 0.314978467123556
2275	 0.314594321015561
2276	 0.314202472819113
2277	 0.313754232508529
2278	 0.313188646887482
2279	 0.312589681695004
2280	 0.312002610288321
2281	 0.31129956326041
2282	 0.310392340137687
2283	 0.309639908238382
2284	 0.308902529122672
2285	 0.308226935458513
2286	 0.307763061531135
2287	 0.307175847891059
2288	 0.306532973272958
2289	 0.305849754947453
2290	 0.305151349761029
2291	 0.30445732221579
2292	 0.303631071995241
2293	 0.302840199563038
2294	 0.302100103402023
2295	 0.301475267857145
2296	 0.300925215516622
2297	 0.300302712733461
2298	 0.299580555334973
2299	 0.29865801128418
2300	 0.297678469749571
2301	 0.296860298151108
2302	 0.295972006272672
2303	 0.295011453741252
2304	 0.294141115115387
2305	 0.293395417639823
2306	 0.292357208207445
2307	 0.291237431490589
2308	 0.290148762027283
2309	 0.288663752637148
2310	 0.287810939722513
2311	 0.287333328503922
2312	 0.286708091312979
2313	 0.286388739783546
2314	 0.285915627115905
2315	 0.285273290824691
2316	 0.284807379143109
2317	 0.284440176478252
2318	 0.284133163228066
2319	 0.283858041955815
2320	 0.283642881894309
2321	 0.283526206081023
2322	 0.283420830671131
2323	 0.283420764400139
2324	 0.283332779979544
2325	 0.283346808990695
2326	 0.28314864815693
2327	 0.282696546468645
2328	 0.282479446028468
2329	 0.282215485634435
2330	 0.282006446840815
2331	 0.282000212976802
2332	 0.281777758425502
2333	 0.281446243059501
2334	 0.281255709217063
2335	 0.281131951425101
2336	 0.280861088424163
2337	 0.280638364091517
2338	 0.280174600847724
2339	 0.279508861674411
2340	 0.278819523814022
2341	 0.277966900549971
2342	 0.277145154466067
2343	 0.276477100119693
2344	 0.275532873230205
2345	 0.274784149435783
2346	 0.273982036911289
2347	 0.272900728556642
2348	 0.272170007796006
2349	 0.271631603721798
2350	 0.271108674838597
2351	 0.270651364695268
2352	 0.270118578336029
2353	 0.269691321845116
2354	 0.269262575547028
2355	 0.268753285095018
2356	 0.268223147197086
2357	 0.267258199354692
2358	 0.266342486955241
2359	 0.265987631937843
2360	 0.265857987147551
2361	 0.265934692540354
2362	 0.265855039947962
2363	 0.265511956372087
2364	 0.26484949368402
2365	 0.264167853916409
2366	 0.263843671910483
2367	 0.263127736122478
2368	 0.262453984220946
2369	 0.261739281559676
2370	 0.26049802309095
2371	 0.259689214583082
2372	 0.259062475101577
2373	 0.258322479606219
2374	 0.257778760958243
2375	 0.25672132051961
2376	 0.255429617018819
2377	 0.254521497573866
2378	 0.253510846570831
2379	 0.252877974799484
2380	 0.252396313187576
2381	 0.251653751039116
2382	 0.250980975212813
2383	 0.250043444364775
2384	 0.249521882154786
2385	 0.249332309264474
2386	 0.249008719993763
2387	 0.249183193125912
2388	 0.249098789730677
2389	 0.24855859814374
2390	 0.248497331117777
2391	 0.248652007038686
2392	 0.248901719976872
2393	 0.249138249924953
2394	 0.249038536488315
2395	 0.248576604314835
2396	 0.248081588781238
2397	 0.247987098904553
2398	 0.247862777675975
2399	 0.247648906382195
2400	 0.247278929967284
2401	 0.246589397223767
2402	 0.246051511655516
2403	 0.245970455322303
2404	 0.245859816843197
2405	 0.24569939111441
2406	 0.245709020570898
2407	 0.245274219298837
2408	 0.244915558961999
2409	 0.244556703216901
2410	 0.243986423654584
2411	 0.243650393261875
2412	 0.243239238487085
2413	 0.242810836722027
2414	 0.242018145179106
2415	 0.241056321606157
2416	 0.240203225339659
2417	 0.239239970113283
2418	 0.238374440926942
2419	 0.237872578707354
2420	 0.237418559973614
2421	 0.236494911762224
2422	 0.235878011902278
2423	 0.235053335989331
2424	 0.234189588646477
2425	 0.233501997701413
2426	 0.232635922015741
2427	 0.231404385272306
2428	 0.230442047322539
2429	 0.229692479795009
2430	 0.229214292988707
2431	 0.229353086535918
2432	 0.228573337015138
2433	 0.227186320415203
2434	 0.226085899620048
2435	 0.224603779871767
2436	 0.223387786297464
2437	 0.222646048450957
2438	 0.222486773547116
2439	 0.221533484706213
2440	 0.221569969032432
2441	 0.221330579043173
2442	 0.220746266531227
2443	 0.220553023186049
2444	 0.219689017358346
2445	 0.218845605188509
2446	 0.218099252829248
2447	 0.217211683069114
2448	 0.216757702993603
2449	 0.216225083878686
2450	 0.215520299703501
2451	 0.215091230571568
2452	 0.214639571622606
2453	 0.214393422584727
2454	 0.214197584442021
2455	 0.213273703433329
2456	 0.212426667287326
2457	 0.211832990239891
2458	 0.211238087612779
2459	 0.211099156217742
2460	 0.210901617057768
2461	 0.210191232449082
2462	 0.209306584989538
2463	 0.208664017705546
2464	 0.208197935512476
2465	 0.207952202748856
2466	 0.207782284344881
2467	 0.207453643995653
2468	 0.207080266358935
2469	 0.206397914075598
2470	 0.205730656489071
2471	 0.206045974395882
2472	 0.205411403800008
2473	 0.203621449923304
2474	 0.202558375590211
2475	 0.201128061981297
2476	 0.199775944125933
2477	 0.199969145734827
2478	 0.19947848231825
2479	 0.199068824850946
2480	 0.199593379200845
2481	 0.199417065917671
2482	 0.199492203193751
2483	 0.199267886560251
2484	 0.198858964416819
2485	 0.197785501384116
2486	 0.196749870773066
2487	 0.196430585178638
2488	 0.194798571802473
2489	 0.193528075020261
2490	 0.193325662281238
2491	 0.192410939515824
2492	 0.193069156005825
2493	 0.194872593206371
2494	 0.195324141162817
2495	 0.195944334043391
2496	 0.195355533709659
2497	 0.193750395595638
2498	 0.193182484091076
2499	 0.192176882522392
2500	 0.191795618741313
