Wavelength	signature0014.asd
350	 0.138460589542905
351	 0.143234503613443
352	 0.144053319086415
353	 0.14196495075397
354	 0.141577086156402
355	 0.137897708519515
356	 0.139714734444858
357	 0.142613892703356
358	 0.1350301942658
359	 0.141044263095406
360	 0.141287884304951
361	 0.132362542687037
362	 0.137003747197261
363	 0.137263910009443
364	 0.135372300678795
365	 0.135620516178877
366	 0.13675197089741
367	 0.141821621742262
368	 0.142933450578961
369	 0.134350945004283
370	 0.134671034117082
371	 0.139276531651178
372	 0.142516176246932
373	 0.139990820667833
374	 0.13809875085723
375	 0.137371458656972
376	 0.138241601940358
377	 0.141438840669333
378	 0.136724351913606
379	 0.136258390941637
380	 0.144579700768917
381	 0.141307528660221
382	 0.140525919413179
383	 0.142086893186474
384	 0.142705184916431
385	 0.144760655166253
386	 0.145069415668552
387	 0.144476282964147
388	 0.145387905907444
389	 0.142199069606648
390	 0.142533304188106
391	 0.146206592699629
392	 0.143992806849068
393	 0.145043866497096
394	 0.147998867808447
395	 0.149424042473401
396	 0.145163794781013
397	 0.14550827517896
398	 0.148339416108132
399	 0.148297242461213
400	 0.143982703091928
401	 0.144039271999358
402	 0.148423923102155
403	 0.151242830457667
404	 0.148797608121503
405	 0.147905298933587
406	 0.150609064388113
407	 0.151766445805932
408	 0.150845695529204
409	 0.150248470642064
410	 0.151330923979049
411	 0.151186489098457
412	 0.150609144297
413	 0.151090234835671
414	 0.15330947806083
415	 0.152412902046975
416	 0.151899788067925
417	 0.152920224391993
418	 0.154166820472187
419	 0.154086194720641
420	 0.154092413282281
421	 0.155202060456433
422	 0.157096980916361
423	 0.157455915596039
424	 0.156968799164891
425	 0.157103675375569
426	 0.158725858338922
427	 0.159107357427563
428	 0.1585002015231
429	 0.158940717186575
430	 0.160717731472983
431	 0.161656660588079
432	 0.16131938073
433	 0.161809128760312
434	 0.162972415336916
435	 0.163816121240264
436	 0.163826521995471
437	 0.164454206606482
438	 0.165388300643252
439	 0.16609949742004
440	 0.166175266373291
441	 0.166665580709216
442	 0.167792910922512
443	 0.168880259218818
444	 0.168511648537215
445	 0.169369964059099
446	 0.170269491295305
447	 0.170383286838751
448	 0.171756336857884
449	 0.172721812650874
450	 0.173217583419584
451	 0.173779471229353
452	 0.174447516849608
453	 0.175294703859902
454	 0.176233264548059
455	 0.177026915100159
456	 0.177457170029452
457	 0.177921690819824
458	 0.178632559305484
459	 0.179191208765366
460	 0.179605047761619
461	 0.180153704195818
462	 0.180997596651288
463	 0.181219244317436
464	 0.181485479698439
465	 0.182060605296825
466	 0.182767941885507
467	 0.183056162812212
468	 0.183458461893461
469	 0.18414546925414
470	 0.184238089493098
471	 0.184564216609521
472	 0.185007178462211
473	 0.18525892600072
474	 0.185617167242997
475	 0.185803029828062
476	 0.186023403986307
477	 0.186786558325877
478	 0.187409633567233
479	 0.187793954345203
480	 0.188020907247514
481	 0.188312693082907
482	 0.188611501032009
483	 0.18899808523632
484	 0.189493137319612
485	 0.189665957701697
486	 0.190313488794691
487	 0.191122757552002
488	 0.191062204936915
489	 0.191282028229264
490	 0.191866685667043
491	 0.192625839862275
492	 0.193190445302906
493	 0.193695296066187
494	 0.194170400173661
495	 0.194602246676722
496	 0.194869046810027
497	 0.195273953235011
498	 0.195815851557395
499	 0.196266752787143
500	 0.196808519446351
501	 0.197491660281591
502	 0.198253838176718
503	 0.198876913127513
504	 0.199254370115834
505	 0.199703482485464
506	 0.200464717294869
507	 0.200730210994761
508	 0.201042367997884
509	 0.20154444683159
510	 0.202008244153456
511	 0.202507664426857
512	 0.202886424940696
513	 0.203177247451683
514	 0.203872588327328
515	 0.204666223743705
516	 0.205164850627494
517	 0.205202015394162
518	 0.205906739829355
519	 0.206492843120778
520	 0.206817950427324
521	 0.207399440530732
522	 0.207795576151747
523	 0.208189721391667
524	 0.20870081437741
525	 0.209033703226715
526	 0.209359568032691
527	 0.209859472289725
528	 0.210611090064542
529	 0.211083542732826
530	 0.211503638887185
531	 0.212030829338521
532	 0.212685741349933
533	 0.213326821937039
534	 0.213826520504709
535	 0.214215992572277
536	 0.214943252952913
537	 0.215486419879947
538	 0.215915734753308
539	 0.216554534310718
540	 0.217339523464659
541	 0.217942692015811
542	 0.218399467252336
543	 0.21921303862269
544	 0.219829606535631
545	 0.220485598641756
546	 0.221396681870253
547	 0.222101455017416
548	 0.2227757662505
549	 0.223532903028391
550	 0.224405482076253
551	 0.225057686605098
552	 0.22577150106323
553	 0.22666295143917
554	 0.227481849404573
555	 0.228131338309144
556	 0.228858774947368
557	 0.229854993054872
558	 0.230610191870105
559	 0.231478065241467
560	 0.232474952834723
561	 0.233354541006993
562	 0.234166920355016
563	 0.235014805759152
564	 0.235940235289459
565	 0.23683565061554
566	 0.23792322802098
567	 0.238983972743029
568	 0.239762516546793
569	 0.240644055790046
570	 0.241714231102019
571	 0.242852474919724
572	 0.243779331993888
573	 0.244841102304328
574	 0.246060488844821
575	 0.247347299876625
576	 0.248467580599619
577	 0.249743511743267
578	 0.251120893507227
579	 0.252409382290666
580	 0.253750569209567
581	 0.255099436431697
582	 0.256362264199905
583	 0.25740726278953
584	 0.258581363905581
585	 0.259704597623751
586	 0.260616223897092
587	 0.261593014313871
588	 0.262590077490708
589	 0.263474261814255
590	 0.264118602389128
591	 0.264958446082318
592	 0.265689699576851
593	 0.266133056881479
594	 0.266396894560061
595	 0.266741650207788
596	 0.267157931975106
597	 0.267555539271577
598	 0.267918899027681
599	 0.268199242145791
600	 0.268391178482371
601	 0.268532643090047
602	 0.268747008247023
603	 0.269103645948161
604	 0.269515223073179
605	 0.269626323933492
606	 0.269624681855168
607	 0.26972675581287
608	 0.270054332903877
609	 0.270230436558644
610	 0.270288747138644
611	 0.270411936757492
612	 0.270851367373215
613	 0.27092634899733
614	 0.2709570659858
615	 0.271225474992834
616	 0.271508121323866
617	 0.271644226855362
618	 0.271802036450343
619	 0.272223201450704
620	 0.272648285653651
621	 0.272918698834387
622	 0.273126168545636
623	 0.27361560883152
624	 0.274166225539392
625	 0.274627390996585
626	 0.274986267830293
627	 0.275571580363932
628	 0.27621073094053
629	 0.276787315450412
630	 0.277251674834813
631	 0.277816071518356
632	 0.278494110324464
633	 0.279239629655891
634	 0.279957544779085
635	 0.280706892793173
636	 0.281484195360849
637	 0.282301275364858
638	 0.283277935746232
639	 0.284239455893722
640	 0.28512634644096
641	 0.285964646676261
642	 0.28681391472796
643	 0.287758243498872
644	 0.288754043548589
645	 0.289552256814004
646	 0.290436541121175
647	 0.29137895881199
648	 0.292252958598761
649	 0.292926917979791
650	 0.29370584807976
651	 0.294560376772778
652	 0.295231247819544
653	 0.295977290546413
654	 0.296757843622692
655	 0.297494226081646
656	 0.298099176903583
657	 0.298913932699045
658	 0.299807143910217
659	 0.300555959849053
660	 0.301334109049119
661	 0.302221087112856
662	 0.303154166917995
663	 0.303973997242768
664	 0.304936053960778
665	 0.305980086674684
666	 0.307006804204076
667	 0.307942577790144
668	 0.308986908476076
669	 0.310029325114807
670	 0.310915546148405
671	 0.31191447767484
672	 0.312954649265587
673	 0.313928823656523
674	 0.314734939757983
675	 0.315653864120792
676	 0.316636785557633
677	 0.317574570781271
678	 0.318350124288514
679	 0.319215278081526
680	 0.320173867284395
681	 0.321128102843297
682	 0.322036163018622
683	 0.323035274156804
684	 0.324165285457332
685	 0.325350341124557
686	 0.326496993502623
687	 0.327649448765358
688	 0.328870065353784
689	 0.330195996231856
690	 0.331513541462883
691	 0.332832025498194
692	 0.33420659715269
693	 0.335612740921809
694	 0.336995191065128
695	 0.338322667254405
696	 0.339596807491234
697	 0.340925612342707
698	 0.34220008810161
699	 0.343345247535032
700	 0.3444750953876
701	 0.345658416270106
702	 0.346781129347826
703	 0.347703658974823
704	 0.348637814848041
705	 0.349660921097519
706	 0.350658505148584
707	 0.351355811859792
708	 0.352177536442281
709	 0.35307091187079
710	 0.353913033914832
711	 0.354649238476505
712	 0.355360909871536
713	 0.356049218403254
714	 0.356696066908652
715	 0.357363752832361
716	 0.358087598247016
717	 0.358819086600599
718	 0.359441150890351
719	 0.360040315115827
720	 0.360606740728617
721	 0.361143167626289
722	 0.361723676615306
723	 0.362238126150463
724	 0.36270712981987
725	 0.363188784693413
726	 0.36366175338654
727	 0.364124627643873
728	 0.364600029430056
729	 0.365118210400341
730	 0.365517076682539
731	 0.365876268369505
732	 0.366267675571804
733	 0.366671161019634
734	 0.367023702379131
735	 0.367364563881246
736	 0.367745118596533
737	 0.368111583388663
738	 0.368413479179759
739	 0.368683024811944
740	 0.369004768301222
741	 0.369328117205649
742	 0.369721918067334
743	 0.370139368725872
744	 0.370331339437619
745	 0.37059769192992
746	 0.370889773594354
747	 0.371102216383807
748	 0.371268627159959
749	 0.371552780453369
750	 0.371916260884135
751	 0.372205717177461
752	 0.372389493471284
753	 0.372591874687232
754	 0.372862669972867
755	 0.373139622177679
756	 0.373381476330398
757	 0.373590005517905
758	 0.373783365867408
759	 0.37399180809555
760	 0.37416046435746
761	 0.374310154403992
762	 0.374485328616189
763	 0.374670306623189
764	 0.374865800694194
765	 0.375044967676439
766	 0.375165228436938
767	 0.375300876869008
768	 0.375416290242291
769	 0.375520816924004
770	 0.375734907836833
771	 0.375900618396327
772	 0.376024553599771
773	 0.376150178575486
774	 0.376256404669648
775	 0.376400254388794
776	 0.376593233730197
777	 0.376800184840015
778	 0.376879441428268
779	 0.376961422683278
780	 0.377085522110994
781	 0.377161534953538
782	 0.377274464733299
783	 0.377425270325311
784	 0.377585947992722
785	 0.377707204508866
786	 0.37779751757553
787	 0.377861036399586
788	 0.377927533546767
789	 0.378137473880247
790	 0.378280904718108
791	 0.378318261593464
792	 0.378344404169241
793	 0.378441668768767
794	 0.37854040355234
795	 0.378587426165902
796	 0.378580793084889
797	 0.378661038265359
798	 0.378751995141533
799	 0.378801567201294
800	 0.378948418350128
801	 0.379001794700784
802	 0.378966027860674
803	 0.378934698422974
804	 0.37904966057129
805	 0.379058551338744
806	 0.379021019080699
807	 0.379163398066722
808	 0.379157901344297
809	 0.379158385830474
810	 0.379243715921014
811	 0.379337862324349
812	 0.379405041637445
813	 0.379434164729933
814	 0.379439601800327
815	 0.379468558754138
816	 0.379528986079794
817	 0.379592088370102
818	 0.379628544266451
819	 0.37966060131658
820	 0.379692566250371
821	 0.379742163976748
822	 0.379813632444644
823	 0.37977684342318
824	 0.379796309712297
825	 0.379899509017769
826	 0.379959013828437
827	 0.379921233093974
828	 0.379921877790777
829	 0.379983389346322
830	 0.379902694603043
831	 0.379959567202338
832	 0.380065279569967
833	 0.380089533559254
834	 0.380046466406429
835	 0.380043452135669
836	 0.380076283571864
837	 0.380090695887781
838	 0.380031389336059
839	 0.380018540166527
840	 0.380046145367481
841	 0.380036556663325
842	 0.380046366302522
843	 0.380064403953654
844	 0.380068526517234
845	 0.380041656057501
846	 0.380097685819346
847	 0.380176980482793
848	 0.380210372805113
849	 0.380164611202412
850	 0.380102142375961
851	 0.3800480225869
852	 0.380048304891182
853	 0.380240889542167
854	 0.380290420126555
855	 0.380193693018476
856	 0.380085503155086
857	 0.38012837535031
858	 0.380131183105897
859	 0.380117741791117
860	 0.380195399667745
861	 0.380275339892293
862	 0.380365706160557
863	 0.380396674553255
864	 0.380291174838398
865	 0.380405521569527
866	 0.380462293938286
867	 0.380374370595094
868	 0.380330828024059
869	 0.380314320198641
870	 0.380357418507728
871	 0.380453929815267
872	 0.380535375452294
873	 0.380467540865315
874	 0.380452633282695
875	 0.380580961842549
876	 0.380535274974297
877	 0.380557958836927
878	 0.380578337632456
879	 0.380527946940033
880	 0.380627083403411
881	 0.380727068867782
882	 0.380740370597136
883	 0.380674882735949
884	 0.380806238374971
885	 0.380883122842808
886	 0.380836311595706
887	 0.380754560579953
888	 0.380945194507375
889	 0.38100907876812
890	 0.380953089247074
891	 0.381040259046383
892	 0.380981437321726
893	 0.381050500736743
894	 0.381257671275388
895	 0.381356128169325
896	 0.38143580803198
897	 0.381430840328497
898	 0.381416004146492
899	 0.381603389237759
900	 0.381711533782548
901	 0.381830138404916
902	 0.381944555393891
903	 0.381842233439504
904	 0.381952563658962
905	 0.382139520166836
906	 0.382271591908786
907	 0.382426193292611
908	 0.382506467177557
909	 0.382498252116337
910	 0.382463151411538
911	 0.382556044203522
912	 0.382799862864613
913	 0.383000013028366
914	 0.383044875505456
915	 0.383177255465831
916	 0.383044270816771
917	 0.382977290547519
918	 0.383251253305482
919	 0.383388755169806
920	 0.383686834280591
921	 0.383802934838848
922	 0.383506373362902
923	 0.383544739982218
924	 0.383779407323097
925	 0.384001088919736
926	 0.384088064458136
927	 0.384387135470212
928	 0.384403003325072
929	 0.384297294826033
930	 0.384413292898489
931	 0.384673792768152
932	 0.384777611939114
933	 0.384840283155896
934	 0.385036278475597
935	 0.384939576722032
936	 0.385074550333294
937	 0.385261799473089
938	 0.38517864243515
939	 0.385392688627526
940	 0.3855108658264
941	 0.385548924095622
942	 0.385665034212472
943	 0.385667818500946
944	 0.385848629579255
945	 0.38607978054442
946	 0.386130678613204
947	 0.386296658798018
948	 0.386225776001033
949	 0.386109514761312
950	 0.386286723597992
951	 0.386549253990069
952	 0.386750078412317
953	 0.38681682753978
954	 0.386799696980648
955	 0.387002236244678
956	 0.387332251542333
957	 0.387486135919437
958	 0.387318913580734
959	 0.38757087786758
960	 0.387655613600835
961	 0.387675161510321
962	 0.387887292299099
963	 0.388047965991437
964	 0.38815690669562
965	 0.38825909113513
966	 0.38841981091238
967	 0.388697645871409
968	 0.388966423455128
969	 0.389027452681276
970	 0.388941107559409
971	 0.389484646348109
972	 0.389527523808123
973	 0.389488836515872
974	 0.389822613232819
975	 0.389957916557671
976	 0.390158887682818
977	 0.39047817284794
978	 0.390790515590288
979	 0.390776985762009
980	 0.390924956153482
981	 0.391157380352623
982	 0.391315468012807
983	 0.391365233425436
984	 0.391935129531398
985	 0.392274769667727
986	 0.392021141769259
987	 0.391718880935474
988	 0.392499239630543
989	 0.392844123940064
990	 0.392495444122014
991	 0.392702238063364
992	 0.392598432597367
993	 0.393002410177461
994	 0.393662616888236
995	 0.393643967952925
996	 0.393924456310235
997	 0.394248986413294
998	 0.394425151159947
999	 0.394390004731803
1000	 0.394194062056022
1001	 0.382432869193227
1002	 0.382539951696819
1003	 0.382593984245448
1004	 0.382714353799315
1005	 0.382729060104759
1006	 0.382911554591145
1007	 0.38335128395174
1008	 0.383678529608387
1009	 0.38389538255449
1010	 0.384195064302169
1011	 0.384301298684564
1012	 0.384091402850589
1013	 0.38404798198679
1014	 0.384136327419701
1015	 0.384201573600774
1016	 0.384300074456294
1017	 0.384274932764992
1018	 0.384199889859692
1019	 0.384261934986393
1020	 0.384395392819396
1021	 0.384559112802005
1022	 0.384777014586673
1023	 0.384934114817997
1024	 0.385012683109802
1025	 0.385021156792445
1026	 0.385042768340849
1027	 0.385058261011669
1028	 0.385062986142101
1029	 0.385067464862799
1030	 0.385229583905529
1031	 0.38541171755807
1032	 0.385406768352256
1033	 0.385548038986321
1034	 0.385651428365504
1035	 0.385510777871174
1036	 0.385538461342627
1037	 0.385717464300231
1038	 0.3858440434332
1039	 0.385952632664205
1040	 0.386124746560315
1041	 0.38625751998054
1042	 0.386261932715569
1043	 0.386337588998127
1044	 0.386538577719576
1045	 0.386692647845824
1046	 0.386840579873043
1047	 0.386939440928004
1048	 0.386830157532041
1049	 0.386805311374768
1050	 0.386942822585584
1051	 0.387023768613664
1052	 0.387125324490552
1053	 0.387215344092354
1054	 0.387318752431972
1055	 0.3873420952987
1056	 0.387425286321899
1057	 0.387588084858384
1058	 0.387705417910035
1059	 0.387779501801897
1060	 0.387876558080333
1061	 0.387968931354241
1062	 0.388107551439862
1063	 0.388297680710204
1064	 0.388410266457543
1065	 0.388454727982722
1066	 0.388510466944692
1067	 0.388511740652002
1068	 0.388581893093634
1069	 0.388700089344703
1070	 0.388823976993221
1071	 0.388967778012695
1072	 0.389133267839194
1073	 0.389335405720505
1074	 0.389506987750379
1075	 0.389631683543342
1076	 0.389825331257518
1077	 0.389931039834789
1078	 0.390005969138308
1079	 0.390182882146562
1080	 0.390229558914256
1081	 0.390270046303572
1082	 0.39036729408858
1083	 0.390462933694249
1084	 0.390553034557535
1085	 0.390679300298502
1086	 0.390834730282886
1087	 0.390961956223896
1088	 0.39110097000297
1089	 0.391217468213013
1090	 0.391225359493673
1091	 0.391281613411113
1092	 0.391378201259639
1093	 0.391460119926858
1094	 0.391566448960265
1095	 0.391693611815884
1096	 0.391833217287845
1097	 0.391913493211181
1098	 0.391976167043476
1099	 0.392033669208393
1100	 0.39211720023071
1101	 0.3921823822327
1102	 0.39224087010858
1103	 0.392298729835023
1104	 0.392440525475645
1105	 0.392524921367597
1106	 0.392526949677145
1107	 0.392600378650182
1108	 0.392620404825321
1109	 0.392601799537219
1110	 0.392646483817978
1111	 0.392708058808004
1112	 0.392726384593008
1113	 0.392772984462256
1114	 0.392850773948518
1115	 0.392915977040721
1116	 0.392969765626474
1117	 0.393031442641454
1118	 0.39308798490066
1119	 0.39313205203879
1120	 0.393164940856989
1121	 0.393250933407215
1122	 0.3932237536007
1123	 0.393231161273384
1124	 0.393246083045572
1125	 0.393174159316076
1126	 0.393193105333617
1127	 0.393250728584088
1128	 0.393315722903813
1129	 0.393420348905397
1130	 0.393470576138783
1131	 0.393534951001534
1132	 0.393579991664501
1133	 0.393557896548128
1134	 0.393576311824442
1135	 0.39362152174168
1136	 0.393631384718364
1137	 0.39363766918054
1138	 0.393647612380998
1139	 0.393652581027701
1140	 0.393660968834879
1141	 0.393657159597895
1142	 0.393601560206412
1143	 0.393561041713662
1144	 0.393545989266465
1145	 0.393536880069316
1146	 0.393568219647356
1147	 0.393545362736369
1148	 0.393492143127932
1149	 0.393468543774852
1150	 0.393385008645607
1151	 0.393406391252965
1152	 0.393525349507899
1153	 0.393594786555551
1154	 0.39372479841709
1155	 0.393790646953354
1156	 0.393819836179499
1157	 0.393792552632153
1158	 0.393803092647343
1159	 0.393819895636782
1160	 0.393911642864453
1161	 0.394080163774852
1162	 0.394187232145975
1163	 0.394328588277662
1164	 0.39442569685187
1165	 0.394460165009781
1166	 0.39453454680143
1167	 0.394594777122445
1168	 0.394715033036476
1169	 0.394899633693163
1170	 0.395027438158994
1171	 0.395186299350154
1172	 0.395298210967988
1173	 0.395322467485649
1174	 0.395394524833776
1175	 0.395461058814263
1176	 0.395575592724178
1177	 0.395715047586052
1178	 0.395822365685595
1179	 0.39586204461068
1180	 0.395911900319633
1181	 0.395977925280839
1182	 0.396012148159193
1183	 0.396081772343483
1184	 0.396203011763411
1185	 0.396290421842802
1186	 0.396370040831421
1187	 0.39643177726372
1188	 0.396487738756631
1189	 0.396538676680883
1190	 0.396542071824741
1191	 0.396593333706307
1192	 0.396697257193402
1193	 0.396757035755787
1194	 0.39679086200033
1195	 0.396871012598654
1196	 0.396903714482495
1197	 0.396932418871418
1198	 0.396997309757079
1199	 0.397086549245893
1200	 0.397177184758613
1201	 0.397295888120856
1202	 0.39738229931028
1203	 0.397476635886683
1204	 0.397544259245917
1205	 0.397577906566878
1206	 0.397626771484089
1207	 0.397676227081544
1208	 0.397713556716154
1209	 0.397741737024479
1210	 0.397776008611496
1211	 0.397766295223554
1212	 0.39781809750576
1213	 0.39791807785008
1214	 0.398028862959929
1215	 0.398100318970887
1216	 0.398132967012509
1217	 0.398200104848899
1218	 0.39823296743269
1219	 0.398283086682696
1220	 0.398406627915014
1221	 0.398428394027946
1222	 0.398347365743303
1223	 0.398347311302774
1224	 0.398341439297718
1225	 0.398362190579409
1226	 0.398462495812908
1227	 0.398491153943526
1228	 0.39845335058088
1229	 0.398478605557937
1230	 0.398502252508782
1231	 0.398543955567333
1232	 0.398657227555837
1233	 0.398731319304324
1234	 0.398799799625022
1235	 0.39883338987996
1236	 0.398876486642621
1237	 0.398906798866637
1238	 0.398948680176338
1239	 0.398998000022777
1240	 0.39902473929957
1241	 0.399026283520698
1242	 0.399072924057226
1243	 0.399142501389853
1244	 0.399177096322673
1245	 0.399236586394207
1246	 0.39926511073936
1247	 0.399233067549386
1248	 0.399233575231602
1249	 0.399218918744084
1250	 0.399257210607344
1251	 0.399379751290674
1252	 0.399414754399904
1253	 0.399419872438891
1254	 0.399451187443598
1255	 0.399469626490586
1256	 0.399409700765285
1257	 0.399448072276491
1258	 0.399561999192969
1259	 0.399628284534679
1260	 0.399697896667218
1261	 0.399752223560544
1262	 0.39980995659544
1263	 0.399842295494896
1264	 0.399851798147382
1265	 0.399862903524397
1266	 0.399840375412729
1267	 0.399858903437664
1268	 0.399922930753571
1269	 0.399931298505945
1270	 0.399915785697844
1271	 0.399923471641017
1272	 0.399921454032101
1273	 0.399899766053516
1274	 0.399863964448019
1275	 0.399870302165858
1276	 0.39989142921146
1277	 0.39988272106027
1278	 0.399877361198098
1279	 0.399930200141485
1280	 0.399897466313059
1281	 0.399772758180787
1282	 0.399750976531319
1283	 0.399753196882565
1284	 0.399750935461974
1285	 0.399816133686446
1286	 0.399795471652547
1287	 0.399724949536051
1288	 0.399667338539213
1289	 0.39954997302399
1290	 0.399499737471081
1291	 0.39949043651355
1292	 0.399467894479121
1293	 0.399507707959598
1294	 0.399475423945259
1295	 0.39939033451201
1296	 0.399314069952081
1297	 0.399157187465924
1298	 0.399080399818706
1299	 0.399038222660447
1300	 0.399041368387885
1301	 0.399021307300375
1302	 0.399040105093357
1303	 0.399036137905581
1304	 0.399011076328161
1305	 0.398991984013592
1306	 0.398997878103131
1307	 0.398967161473299
1308	 0.398896514747672
1309	 0.398861729691502
1310	 0.398830410027421
1311	 0.398803379303185
1312	 0.398794737301207
1313	 0.398775587554479
1314	 0.398761363746487
1315	 0.398731036708213
1316	 0.398699879694556
1317	 0.398653681564136
1318	 0.398561834313263
1319	 0.398514308208535
1320	 0.398506558294713
1321	 0.398459366265606
1322	 0.398410525066581
1323	 0.39836343089106
1324	 0.398293886691022
1325	 0.398230420049979
1326	 0.398132311337701
1327	 0.398017093533409
1328	 0.39791612335666
1329	 0.397777133270419
1330	 0.39767307253126
1331	 0.397612275225143
1332	 0.397516951723666
1333	 0.39739995336355
1334	 0.397289250015379
1335	 0.397189099704735
1336	 0.397070874810217
1337	 0.39692636120643
1338	 0.396806924889648
1339	 0.39670469299435
1340	 0.396575607660857
1341	 0.396447590144627
1342	 0.396320417568496
1343	 0.396168927962268
1344	 0.396023996958283
1345	 0.395908046563613
1346	 0.395753208042796
1347	 0.395573868123847
1348	 0.395392204653669
1349	 0.395182047745551
1350	 0.394984252142596
1351	 0.394792484903535
1352	 0.394593865433274
1353	 0.394404873612941
1354	 0.394222534483551
1355	 0.394020159776115
1356	 0.393803477057093
1357	 0.393607554903812
1358	 0.393410193521734
1359	 0.393211666975031
1360	 0.393023049779673
1361	 0.392842633544719
1362	 0.392644242646563
1363	 0.39248053365611
1364	 0.392355612143317
1365	 0.392204725155988
1366	 0.392080425644373
1367	 0.391914354575856
1368	 0.391740754698827
1369	 0.391530396768259
1370	 0.391295653564188
1371	 0.391020866441412
1372	 0.390752170623024
1373	 0.390387076786691
1374	 0.390016969465846
1375	 0.389505364133826
1376	 0.388892730193144
1377	 0.388171686274197
1378	 0.387373107933531
1379	 0.386463234180779
1380	 0.385503083307991
1381	 0.384462148627503
1382	 0.383258713884337
1383	 0.381984344847218
1384	 0.380653292178465
1385	 0.379180632017461
1386	 0.377792118756517
1387	 0.376339463197911
1388	 0.375050550687911
1389	 0.373760489974567
1390	 0.372675103789121
1391	 0.371754470428412
1392	 0.370851875212487
1393	 0.370100052703023
1394	 0.36928900100899
1395	 0.368565285982698
1396	 0.3676943227827
1397	 0.366819358612068
1398	 0.365803882917003
1399	 0.364654413752231
1400	 0.363467988113265
1401	 0.362172593991551
1402	 0.360873112880999
1403	 0.35947689020596
1404	 0.35813335396764
1405	 0.356779293700113
1406	 0.355449728795904
1407	 0.354114112092488
1408	 0.352842369121597
1409	 0.351591525612538
1410	 0.350467771317846
1411	 0.349473295620048
1412	 0.348611442241456
1413	 0.347925199997363
1414	 0.347352490784291
1415	 0.346968569482826
1416	 0.346735337937408
1417	 0.346593770706995
1418	 0.346602471104333
1419	 0.346667099675154
1420	 0.346859019580419
1421	 0.347035153205277
1422	 0.347284733493781
1423	 0.347537325491832
1424	 0.347814750873738
1425	 0.34809257163368
1426	 0.348411113517714
1427	 0.348711326020773
1428	 0.348983170601054
1429	 0.349299408869484
1430	 0.349645634504034
1431	 0.349986102647522
1432	 0.350329553876119
1433	 0.35070763423121
1434	 0.351119940753947
1435	 0.351502735495043
1436	 0.351912940773855
1437	 0.352295797888749
1438	 0.352642586692096
1439	 0.35299117140402
1440	 0.353348126897549
1441	 0.353684831629896
1442	 0.353989569257623
1443	 0.354305089696895
1444	 0.354630482100673
1445	 0.354929836242588
1446	 0.355224176668946
1447	 0.355509455708456
1448	 0.355722717333633
1449	 0.355908691217864
1450	 0.356088839267802
1451	 0.356259618046734
1452	 0.356442365569397
1453	 0.356602611731401
1454	 0.356752665414901
1455	 0.356890909739305
1456	 0.357002436417708
1457	 0.357098746135602
1458	 0.357186125567408
1459	 0.357222160805129
1460	 0.357327201947184
1461	 0.357452305807814
1462	 0.357591896998492
1463	 0.357763037209084
1464	 0.357938870319498
1465	 0.358120101222562
1466	 0.358322499861407
1467	 0.358542062668096
1468	 0.358793657453975
1469	 0.359059240642278
1470	 0.359351102896433
1471	 0.359699745660843
1472	 0.36000938394568
1473	 0.360322419504231
1474	 0.360635998217205
1475	 0.360914420991993
1476	 0.361240689565143
1477	 0.361598310167817
1478	 0.361947524124594
1479	 0.362329895281903
1480	 0.362687601293413
1481	 0.363021247107214
1482	 0.363377786276995
1483	 0.363745356706755
1484	 0.364102773878425
1485	 0.36447390455197
1486	 0.364824946101892
1487	 0.365134617291213
1488	 0.36547956155851
1489	 0.365867388091314
1490	 0.366207139134652
1491	 0.366535986630552
1492	 0.366868401510699
1493	 0.367136278788626
1494	 0.367413591896593
1495	 0.367725619579909
1496	 0.36801894998974
1497	 0.368334612843466
1498	 0.368658828845056
1499	 0.368947198319229
1500	 0.369250957690128
1501	 0.369581048650214
1502	 0.369841601306748
1503	 0.370086262317479
1504	 0.370364670477196
1505	 0.370633370369732
1506	 0.370912244821748
1507	 0.371179199919838
1508	 0.371472878244838
1509	 0.371737913709482
1510	 0.371964195046626
1511	 0.372218679290819
1512	 0.372487214275847
1513	 0.372759079585935
1514	 0.373045821902728
1515	 0.373291604343249
1516	 0.373526239756434
1517	 0.373758161430399
1518	 0.373955311282848
1519	 0.374180569046369
1520	 0.374425696396139
1521	 0.374662218940233
1522	 0.374907378758669
1523	 0.375119015299867
1524	 0.375312939384425
1525	 0.375523883631161
1526	 0.375721383114607
1527	 0.375909250800567
1528	 0.376111118425129
1529	 0.376296623599198
1530	 0.376446775101518
1531	 0.376629157838623
1532	 0.376847975342027
1533	 0.37701759642516
1534	 0.377172758880333
1535	 0.377314629648264
1536	 0.377407655047219
1537	 0.377543024192183
1538	 0.377692405263308
1539	 0.377842452013839
1540	 0.378009415230831
1541	 0.378169925716143
1542	 0.378331477135337
1543	 0.378489934314747
1544	 0.378660508365432
1545	 0.378804268369651
1546	 0.378928773609647
1547	 0.379059098758767
1548	 0.379176743255497
1549	 0.379294892625646
1550	 0.379425620927354
1551	 0.379529186964141
1552	 0.379593589691045
1553	 0.379695815630128
1554	 0.379797659935603
1555	 0.379915845554706
1556	 0.380084579787634
1557	 0.380213523395248
1558	 0.380321089280636
1559	 0.380436598098703
1560	 0.380543634959198
1561	 0.380643890297007
1562	 0.38072716813905
1563	 0.380839376100261
1564	 0.380966645207133
1565	 0.381087163390069
1566	 0.381251130716433
1567	 0.381372915147858
1568	 0.381441752613978
1569	 0.381532020455096
1570	 0.381612117777919
1571	 0.381701784737186
1572	 0.381811740644234
1573	 0.381912946979405
1574	 0.381997690426644
1575	 0.38210633664474
1576	 0.382235148232058
1577	 0.38233459683576
1578	 0.382414453168745
1579	 0.382517796971368
1580	 0.38259563185052
1581	 0.382665496454125
1582	 0.382748406899573
1583	 0.382809998117384
1584	 0.382895424640971
1585	 0.38297837884365
1586	 0.383058893476986
1587	 0.383149899575004
1588	 0.383212793049559
1589	 0.383289823682412
1590	 0.383385692651444
1591	 0.383474992945406
1592	 0.383559516132949
1593	 0.383633156234778
1594	 0.383709516244717
1595	 0.383775150378485
1596	 0.38380758625999
1597	 0.383865540485404
1598	 0.383928678076316
1599	 0.383974628775507
1600	 0.384011488824001
1601	 0.384030347413203
1602	 0.384068700160488
1603	 0.384092783527035
1604	 0.384170816682253
1605	 0.384290019191082
1606	 0.384361801948362
1607	 0.384459029487861
1608	 0.384532688364674
1609	 0.384567598887087
1610	 0.384634733944427
1611	 0.384680152709128
1612	 0.384727242326458
1613	 0.384810118150153
1614	 0.384848798632342
1615	 0.384909595550626
1616	 0.385023454146561
1617	 0.385110742729454
1618	 0.38519402828642
1619	 0.385309464121923
1620	 0.385360289890194
1621	 0.38535518930552
1622	 0.385395439664879
1623	 0.385420446690453
1624	 0.385500339511461
1625	 0.385623603885871
1626	 0.385696856416542
1627	 0.385782854922517
1628	 0.385832621461075
1629	 0.385866166231489
1630	 0.385937004878614
1631	 0.386017818881889
1632	 0.386081643020359
1633	 0.386134595065534
1634	 0.386158439089105
1635	 0.386191766566837
1636	 0.38623219082367
1637	 0.38624007181717
1638	 0.386283271202701
1639	 0.386346970051468
1640	 0.386376546504493
1641	 0.386424053321517
1642	 0.386449349515801
1643	 0.386504394612041
1644	 0.386634395468581
1645	 0.386707487982066
1646	 0.386760286381426
1647	 0.386805743069614
1648	 0.386795965521976
1649	 0.386807347181906
1650	 0.386833021818341
1651	 0.386858449077143
1652	 0.386893357968872
1653	 0.386918823347758
1654	 0.386949486849925
1655	 0.386963772437287
1656	 0.386960476414702
1657	 0.386957108719401
1658	 0.386925452611845
1659	 0.386924199941452
1660	 0.386933954684024
1661	 0.386956124051411
1662	 0.387037765865729
1663	 0.387062614750998
1664	 0.38706454153041
1665	 0.387056524349709
1666	 0.387014611916075
1667	 0.386959890811109
1668	 0.386877059824089
1669	 0.386819174813741
1670	 0.386739476048987
1671	 0.386692187156755
1672	 0.386683486895486
1673	 0.386676165409042
1674	 0.386698588091555
1675	 0.386689909989673
1676	 0.386671458925686
1677	 0.386661542871443
1678	 0.386639720917187
1679	 0.386613799790303
1680	 0.386607369850102
1681	 0.386572048050337
1682	 0.386473486820268
1683	 0.386443622825661
1684	 0.386457567677617
1685	 0.38644337323627
1686	 0.386468942802284
1687	 0.38645412193449
1688	 0.386373646270387
1689	 0.386341487919154
1690	 0.38633896575783
1691	 0.386310211570577
1692	 0.386278537230116
1693	 0.386255434254454
1694	 0.386211428775288
1695	 0.38618705152376
1696	 0.386202961665606
1697	 0.386181754665439
1698	 0.386138011719972
1699	 0.386110690386502
1700	 0.386085333741471
1701	 0.386039594465179
1702	 0.38598568399013
1703	 0.385946883727989
1704	 0.385891631467851
1705	 0.385846120218801
1706	 0.385833121508253
1707	 0.385789557405068
1708	 0.385716242064876
1709	 0.385684265430922
1710	 0.385676979524387
1711	 0.385616937334004
1712	 0.385569012619461
1713	 0.385468230413643
1714	 0.385292250649728
1715	 0.38518261865573
1716	 0.385083198566933
1717	 0.384964382131632
1718	 0.384862466688967
1719	 0.384758974787166
1720	 0.384634425016845
1721	 0.384543966698781
1722	 0.384422517076709
1723	 0.384338070266546
1724	 0.384256504970492
1725	 0.384150738226725
1726	 0.38409180910354
1727	 0.384007176277363
1728	 0.383925609719127
1729	 0.383812228836785
1730	 0.383682470956367
1731	 0.383593177106766
1732	 0.383424183072822
1733	 0.38330150354535
1734	 0.383231597392765
1735	 0.383073034047144
1736	 0.382918644667442
1737	 0.382750677924384
1738	 0.382582333058338
1739	 0.382370659601522
1740	 0.382229959177964
1741	 0.382166167097934
1742	 0.382034601003954
1743	 0.381902149987153
1744	 0.381773342451382
1745	 0.381600018372473
1746	 0.381454214989693
1747	 0.381336812295124
1748	 0.381219345912138
1749	 0.381101629552362
1750	 0.380957353036244
1751	 0.380827642635807
1752	 0.380675435536904
1753	 0.380465143366074
1754	 0.380324437555486
1755	 0.380220879807116
1756	 0.380093651590724
1757	 0.379992836501406
1758	 0.379873120600349
1759	 0.379729420896831
1760	 0.379615185910792
1761	 0.379461030939559
1762	 0.37931864452374
1763	 0.379188225874323
1764	 0.379061085278977
1765	 0.378945069854877
1766	 0.378807373370284
1767	 0.378714010854769
1768	 0.378663954809556
1769	 0.378575627653919
1770	 0.378522619828938
1771	 0.378439042618429
1772	 0.378283703803078
1773	 0.378157511657448
1774	 0.378022956656412
1775	 0.37787324593342
1776	 0.377730452824349
1777	 0.37762833842032
1778	 0.377519711217149
1779	 0.377408369414061
1780	 0.377340999505202
1781	 0.377276356964038
1782	 0.377223251070682
1783	 0.37715995139933
1784	 0.377097270454477
1785	 0.377061288164137
1786	 0.377048020963268
1787	 0.377013862833602
1788	 0.376972595820245
1789	 0.376970688620626
1790	 0.37696529031562
1791	 0.376965105701869
1792	 0.377043013834241
1793	 0.376947817287079
1794	 0.376877862505079
1795	 0.376875608646999
1796	 0.376827031249576
1797	 0.376774624458011
1798	 0.376756505257501
1799	 0.376690978584261
1800	 0.376644898743671
1801	 0.376713071509753
1802	 0.376677781111072
1803	 0.376524285779778
1804	 0.37646239833309
1805	 0.376431416225525
1806	 0.376501230216787
1807	 0.376682219352425
1808	 0.376738042457749
1809	 0.376703369862408
1810	 0.376617934387443
1811	 0.376487196464612
1812	 0.376469822886328
1813	 0.376559690193985
1814	 0.376536952480702
1815	 0.37654193283921
1816	 0.376508337577936
1817	 0.376328730377958
1818	 0.376263900405862
1819	 0.376215649022848
1820	 0.376172675402152
1821	 0.376266595224813
1822	 0.376302329145265
1823	 0.376256153969075
1824	 0.376260206353175
1825	 0.376176470458347
1826	 0.376056372826655
1827	 0.376042641412398
1828	 0.37595040023047
1829	 0.375751602156556
1830	 0.375642659298857
1831	 0.372692610353319
1832	 0.372637055356977
1833	 0.372532477355341
1834	 0.37248658723401
1835	 0.372538453212446
1836	 0.372528491520966
1837	 0.372448244795989
1838	 0.372431091105295
1839	 0.372486710711555
1840	 0.372494851192909
1841	 0.372422697362495
1842	 0.372459677228865
1843	 0.372435905900626
1844	 0.372405611458753
1845	 0.372284160539533
1846	 0.372088492774371
1847	 0.371947168675645
1848	 0.371758682312394
1849	 0.371543248557364
1850	 0.371514911927954
1851	 0.371508271372305
1852	 0.371351248969456
1853	 0.371150894359712
1854	 0.37083852130601
1855	 0.37035338362112
1856	 0.369928808979895
1857	 0.369481692591433
1858	 0.368997412759109
1859	 0.368541955188304
1860	 0.367947698335005
1861	 0.367288037923622
1862	 0.366641899640916
1863	 0.365911298769853
1864	 0.365079835129558
1865	 0.364219924622393
1866	 0.363336958405669
1867	 0.362306458921073
1868	 0.361174412738687
1869	 0.359997791867452
1870	 0.358706037716644
1871	 0.357271791747611
1872	 0.355815702148228
1873	 0.354291027577976
1874	 0.352662207990757
1875	 0.350892936068381
1876	 0.348946473661839
1877	 0.346934771148443
1878	 0.34479803983699
1879	 0.342543657442363
1880	 0.340166403273618
1881	 0.33768543290191
1882	 0.335043114882967
1883	 0.332112109521777
1884	 0.328996640622734
1885	 0.325798080587144
1886	 0.322321780833957
1887	 0.318687554214769
1888	 0.31499797552943
1889	 0.311168338364404
1890	 0.307137280608199
1891	 0.303032009519949
1892	 0.298902785514527
1893	 0.294704769212661
1894	 0.290562658508304
1895	 0.286525074002815
1896	 0.282465910098076
1897	 0.278514179969519
1898	 0.274614177068798
1899	 0.270736428052112
1900	 0.267154384725913
1901	 0.263777815798707
1902	 0.260642248972456
1903	 0.257753979282272
1904	 0.255148164836478
1905	 0.252858452789019
1906	 0.2508090025751
1907	 0.249064632521408
1908	 0.247682198860817
1909	 0.246471176244374
1910	 0.245441536703265
1911	 0.244607683160164
1912	 0.243989518076791
1913	 0.243461377019074
1914	 0.243094536848206
1915	 0.242946798187468
1916	 0.242869709284411
1917	 0.242909644864602
1918	 0.243118127275154
1919	 0.243399463733008
1920	 0.243798572885495
1921	 0.244261743178625
1922	 0.244718005547315
1923	 0.245180126416037
1924	 0.245645952822409
1925	 0.246137745968562
1926	 0.246681213148706
1927	 0.247239288386461
1928	 0.247842594112753
1929	 0.248418392690452
1930	 0.248983229294488
1931	 0.249591077197157
1932	 0.250229541918024
1933	 0.250898473774961
1934	 0.251488030812449
1935	 0.252040925330691
1936	 0.252564939419023
1937	 0.25306431283348
1938	 0.253517048982206
1939	 0.254055561692088
1940	 0.254563970864761
1941	 0.255073800457305
1942	 0.255645881285829
1943	 0.256188811581982
1944	 0.25681543806002
1945	 0.257468720040909
1946	 0.258177529353284
1947	 0.258848151498624
1948	 0.259549845945986
1949	 0.260236949177045
1950	 0.260858303340064
1951	 0.261518919967351
1952	 0.26218836154885
1953	 0.262849199710651
1954	 0.263467333955294
1955	 0.264070809817961
1956	 0.264744403653735
1957	 0.265430817844887
1958	 0.266090880806921
1959	 0.266805902026336
1960	 0.267462786533889
1961	 0.268028413750863
1962	 0.268653089317546
1963	 0.269385119408685
1964	 0.270136534397661
1965	 0.271012981377098
1966	 0.271786312756255
1967	 0.272481268845399
1968	 0.27324129190315
1969	 0.273960570082642
1970	 0.274598139997788
1971	 0.275367014126897
1972	 0.27619172118935
1973	 0.276985782387305
1974	 0.277841050448046
1975	 0.278678525893634
1976	 0.279408193146212
1977	 0.280243328472773
1978	 0.281070187240763
1979	 0.281858985374015
1980	 0.282724383426512
1981	 0.28349351538074
1982	 0.284282085848537
1983	 0.285075791652335
1984	 0.285881841599868
1985	 0.286627437148413
1986	 0.287473736169608
1987	 0.288402611422647
1988	 0.289278589235616
1989	 0.290154411323076
1990	 0.291063393555466
1991	 0.291891086844149
1992	 0.292637138185818
1993	 0.293361339444869
1994	 0.294127963159118
1995	 0.294911401283905
1996	 0.295676135736116
1997	 0.296485927833885
1998	 0.297358315657171
1999	 0.298196033095008
2000	 0.299018273147257
2001	 0.299893085409507
2002	 0.300749831055144
2003	 0.301573170965157
2004	 0.302345749740954
2005	 0.302990553244851
2006	 0.303596786162022
2007	 0.304256099896628
2008	 0.304993635090338
2009	 0.305816178448512
2010	 0.306608714120818
2011	 0.307480006414511
2012	 0.30827642873425
2013	 0.309056271860312
2014	 0.30980896936124
2015	 0.31054418192752
2016	 0.311194468506116
2017	 0.311963761493788
2018	 0.312614823809729
2019	 0.313263747153218
2020	 0.314045735670298
2021	 0.314745938323479
2022	 0.315444504469454
2023	 0.316038124735913
2024	 0.316539762592348
2025	 0.31710163170465
2026	 0.317585726304377
2027	 0.318120111599591
2028	 0.318725239677906
2029	 0.319331838471101
2030	 0.319868452429045
2031	 0.320381536851352
2032	 0.320901856983847
2033	 0.321456196556147
2034	 0.321984502625015
2035	 0.322497208985196
2036	 0.322974508206456
2037	 0.3233963661135
2038	 0.323842244544711
2039	 0.324288095817006
2040	 0.324720037928137
2041	 0.325191609483337
2042	 0.325592405361511
2043	 0.325955220682721
2044	 0.326233884160181
2045	 0.326574314629479
2046	 0.326934709826939
2047	 0.327444798728474
2048	 0.328022442360253
2049	 0.328560686306426
2050	 0.329098382998502
2051	 0.329505604980205
2052	 0.329780371323519
2053	 0.330098895321103
2054	 0.330287228374458
2055	 0.330614589145246
2056	 0.331004899518646
2057	 0.331399312106186
2058	 0.331857657969835
2059	 0.332346527285904
2060	 0.33269320935432
2061	 0.333060135480671
2062	 0.333462432725234
2063	 0.333826129597635
2064	 0.334256461049847
2065	 0.334786177413797
2066	 0.335227664610007
2067	 0.335637832532927
2068	 0.336012460787565
2069	 0.336329595093904
2070	 0.33668989810516
2071	 0.337022847445869
2072	 0.337408302177216
2073	 0.337901938196474
2074	 0.338274725065798
2075	 0.338590757494003
2076	 0.338909400947704
2077	 0.339212568840197
2078	 0.33951984442063
2079	 0.339777466500148
2080	 0.340056502091268
2081	 0.340351332019491
2082	 0.340599429339687
2083	 0.340893021852581
2084	 0.341270889972142
2085	 0.341576567604112
2086	 0.341859421232253
2087	 0.342107457656909
2088	 0.342334529699233
2089	 0.342554660174415
2090	 0.342632341362455
2091	 0.342881493741394
2092	 0.343234794091875
2093	 0.343561380663364
2094	 0.344020521533644
2095	 0.344522892857115
2096	 0.344824583067521
2097	 0.345125455978594
2098	 0.345334076301322
2099	 0.345327694455999
2100	 0.345542192026468
2101	 0.345788029160364
2102	 0.346071103798242
2103	 0.346572498074433
2104	 0.346872226822808
2105	 0.347059325074866
2106	 0.347296101141095
2107	 0.347415697437586
2108	 0.347626970704062
2109	 0.347882046153455
2110	 0.348198702393708
2111	 0.34857602689564
2112	 0.348967158541506
2113	 0.349282360900656
2114	 0.349531648414513
2115	 0.349790883536739
2116	 0.349903695715241
2117	 0.350193476837293
2118	 0.350642330807739
2119	 0.350957388272559
2120	 0.351300689347534
2121	 0.351568360669217
2122	 0.351717036401386
2123	 0.351898215693531
2124	 0.352033664490121
2125	 0.352234995443892
2126	 0.352478858435728
2127	 0.352698275977724
2128	 0.352967621210678
2129	 0.353228892682027
2130	 0.353284476068749
2131	 0.353301932463319
2132	 0.35337166530169
2133	 0.353376847613172
2134	 0.353427108072495
2135	 0.353575052113165
2136	 0.353611411192942
2137	 0.353609261264187
2138	 0.353534535766354
2139	 0.35337500318
2140	 0.353239537801451
2141	 0.353039663305007
2142	 0.352858535924639
2143	 0.352770046607269
2144	 0.352551331668995
2145	 0.352184588823199
2146	 0.351917087717756
2147	 0.35163945660861
2148	 0.351349603440713
2149	 0.351111309898064
2150	 0.350844585491076
2151	 0.350539919187877
2152	 0.350118600393922
2153	 0.349684856882606
2154	 0.34922655943417
2155	 0.348750036118228
2156	 0.348173648460708
2157	 0.347705927273878
2158	 0.347256975790764
2159	 0.346846264553097
2160	 0.346522947156482
2161	 0.346135576686431
2162	 0.345789143184323
2163	 0.345364246660217
2164	 0.344850576250188
2165	 0.34434348100827
2166	 0.343781297788056
2167	 0.343275318445099
2168	 0.342727475244611
2169	 0.342329418361978
2170	 0.341943502543539
2171	 0.341498683285748
2172	 0.341082937321256
2173	 0.340572978962616
2174	 0.340203264458815
2175	 0.339869183475275
2176	 0.339543844243469
2177	 0.339382261682985
2178	 0.339044147013123
2179	 0.338597198993325
2180	 0.338182737699471
2181	 0.337735162452632
2182	 0.337231630539833
2183	 0.336712665865598
2184	 0.336184821993543
2185	 0.335563972861107
2186	 0.335014837650295
2187	 0.33451628969537
2188	 0.333973755668109
2189	 0.333450253349657
2190	 0.332868380154296
2191	 0.332276230126395
2192	 0.331728835357274
2193	 0.331193943395093
2194	 0.330540799377537
2195	 0.329840733484775
2196	 0.32914300209558
2197	 0.328435907017355
2198	 0.327716176667851
2199	 0.327004698555752
2200	 0.3262787690456
2201	 0.325528979069139
2202	 0.324745048970031
2203	 0.323980920438109
2204	 0.32315347904805
2205	 0.322491834720462
2206	 0.321814096325318
2207	 0.321356627952969
2208	 0.321102355413638
2209	 0.320901181226496
2210	 0.320829629368279
2211	 0.320833059652603
2212	 0.320960004340818
2213	 0.321089352003223
2214	 0.321370385377236
2215	 0.321603650630918
2216	 0.321888314914653
2217	 0.322017826369722
2218	 0.322205842486688
2219	 0.322344767801812
2220	 0.322327309528279
2221	 0.322387867730581
2222	 0.322468154771746
2223	 0.322536244853215
2224	 0.322670243174338
2225	 0.3229538098428
2226	 0.323028715277521
2227	 0.323084565351204
2228	 0.323002801284817
2229	 0.322739126512502
2230	 0.322561895328557
2231	 0.322300505580787
2232	 0.322112662973837
2233	 0.322015016465859
2234	 0.321822578375508
2235	 0.321532651799977
2236	 0.321369123342612
2237	 0.321244663423722
2238	 0.321089343958961
2239	 0.321099345021419
2240	 0.3209441862448
2241	 0.320610158277323
2242	 0.320347107801016
2243	 0.320016857736442
2244	 0.319747686757887
2245	 0.319506149877585
2246	 0.319320732160991
2247	 0.319170823045271
2248	 0.319006746644716
2249	 0.318953304050221
2250	 0.318899336025881
2251	 0.318831211536883
2252	 0.318791237121613
2253	 0.318887267929166
2254	 0.319058855254757
2255	 0.31917299842439
2256	 0.319474748750748
2257	 0.319581822617767
2258	 0.31952070135032
2259	 0.319572756482854
2260	 0.31963306576015
2261	 0.319635033728982
2262	 0.319644761250413
2263	 0.319632646330253
2264	 0.319582931841512
2265	 0.319527244983893
2266	 0.319485313552345
2267	 0.319383394914638
2268	 0.319143688340643
2269	 0.319085184328728
2270	 0.319131842526973
2271	 0.319119738902464
2272	 0.319303217940851
2273	 0.319179239475368
2274	 0.318826854769123
2275	 0.31849516001447
2276	 0.318030856885356
2277	 0.317568070615464
2278	 0.317082996615377
2279	 0.316594584881696
2280	 0.316081301110689
2281	 0.31549595711335
2282	 0.314936582996928
2283	 0.31422825166051
2284	 0.313403162164996
2285	 0.312674159349714
2286	 0.311914168644961
2287	 0.311181600826516
2288	 0.310515309630397
2289	 0.309764932942129
2290	 0.309280793038134
2291	 0.30904722885971
2292	 0.308843751951489
2293	 0.308764736544388
2294	 0.30850735489945
2295	 0.308163993436277
2296	 0.30794807353642
2297	 0.307865145928737
2298	 0.307620932261219
2299	 0.307367952404775
2300	 0.307185782074775
2301	 0.306624416071135
2302	 0.306067871915386
2303	 0.305498946763136
2304	 0.304827725855518
2305	 0.303975363663736
2306	 0.303159628410665
2307	 0.302325890823894
2308	 0.3015089295397
2309	 0.300473023516587
2310	 0.29987694499281
2311	 0.299494694931774
2312	 0.29917435179609
2313	 0.299057396993895
2314	 0.299061357770663
2315	 0.29910524092419
2316	 0.299373098072865
2317	 0.300044899089981
2318	 0.300512522561083
2319	 0.301023144484962
2320	 0.301557597916996
2321	 0.302204563915795
2322	 0.30252310332116
2323	 0.302682201841317
2324	 0.302838082686989
2325	 0.30266511502588
2326	 0.302641663010484
2327	 0.302907324308626
2328	 0.302893795344824
2329	 0.302684175527069
2330	 0.302512082557487
2331	 0.302023939667431
2332	 0.30178244326782
2333	 0.301836410769396
2334	 0.30171873116466
2335	 0.301689841223706
2336	 0.301568158365955
2337	 0.30114680119565
2338	 0.300840005891413
2339	 0.300719195960244
2340	 0.300494605522742
2341	 0.300198397128937
2342	 0.299935422892064
2343	 0.299788925958768
2344	 0.299338078051245
2345	 0.298848261943583
2346	 0.298528433045513
2347	 0.298090903933007
2348	 0.297397232568277
2349	 0.297042005707003
2350	 0.296776056496479
2351	 0.296328670719144
2352	 0.296040751277084
2353	 0.295500962769279
2354	 0.294978220211744
2355	 0.294651434462764
2356	 0.294462623714581
2357	 0.294407984898162
2358	 0.294304820988152
2359	 0.294065067504313
2360	 0.293411994060659
2361	 0.292653809830953
2362	 0.291921044890946
2363	 0.291194144068449
2364	 0.290815634812227
2365	 0.290446747137724
2366	 0.289922361780662
2367	 0.289641400130614
2368	 0.28911985822186
2369	 0.288515946217718
2370	 0.288279233672846
2371	 0.28775999646502
2372	 0.287207096053134
2373	 0.286897770580003
2374	 0.286270716253008
2375	 0.285327692970295
2376	 0.284544383771146
2377	 0.283831564341969
2378	 0.283209139918833
2379	 0.283088432376836
2380	 0.283130382735582
2381	 0.283064245958193
2382	 0.282882039683059
2383	 0.282571729055215
2384	 0.282037831167128
2385	 0.281397680149685
2386	 0.280816116764501
2387	 0.279978182072712
2388	 0.279352157128795
2389	 0.278891146947863
2390	 0.278132290278029
2391	 0.277649183547936
2392	 0.27730070284474
2393	 0.277009917405648
2394	 0.276972575241994
2395	 0.276964177927409
2396	 0.276758772681352
2397	 0.276399581638117
2398	 0.276046469212273
2399	 0.275510475591894
2400	 0.27528297578976
2401	 0.275111687920853
2402	 0.274910997193651
2403	 0.275051961438519
2404	 0.274692152917937
2405	 0.273979014111867
2406	 0.273349853164951
2407	 0.272694074604271
2408	 0.272360462900974
2409	 0.272258545561129
2410	 0.271719640765987
2411	 0.27108306030278
2412	 0.270556444219952
2413	 0.270282868048965
2414	 0.270377326711908
2415	 0.269979621127508
2416	 0.269575682970866
2417	 0.268926427843656
2418	 0.267847572216995
2419	 0.267264209969778
2420	 0.266612337380414
2421	 0.265519003810962
2422	 0.264658240529543
2423	 0.264108844942621
2424	 0.263340660404173
2425	 0.26286980058598
2426	 0.262227120707593
2427	 0.261257845928663
2428	 0.260532410414883
2429	 0.260061218965139
2430	 0.259206848552828
2431	 0.257741285693508
2432	 0.257232535811852
2433	 0.25719763504302
2434	 0.256786700364341
2435	 0.257087058314151
2436	 0.256679007843158
2437	 0.255600710609786
2438	 0.254208477839681
2439	 0.25302797765275
2440	 0.251968890125714
2441	 0.250898753951658
2442	 0.250103916555116
2443	 0.249375376626874
2444	 0.248842173484961
2445	 0.248025800874783
2446	 0.248051995207962
2447	 0.24867877754899
2448	 0.248471432640665
2449	 0.248398356865522
2450	 0.247837334046861
2451	 0.246669378079608
2452	 0.245862945532616
2453	 0.244999450822809
2454	 0.244370627432914
2455	 0.243987925612207
2456	 0.243220325879937
2457	 0.242590099129653
2458	 0.241479143925622
2459	 0.239898414012714
2460	 0.239134399465685
2461	 0.238296371880301
2462	 0.237374201063814
2463	 0.237058672301449
2464	 0.236098112093328
2465	 0.234370933309289
2466	 0.233672618042599
2467	 0.233087610564562
2468	 0.232611610963127
2469	 0.234044257760367
2470	 0.23530168900672
2471	 0.235191899078468
2472	 0.234872447841946
2473	 0.23408558618407
2474	 0.232561472684551
2475	 0.231742173969283
2476	 0.231634933289108
2477	 0.230604768853086
2478	 0.230368113377483
2479	 0.229490617026443
2480	 0.229011491336176
2481	 0.228861638265957
2482	 0.227934106509115
2483	 0.227065033770599
2484	 0.225869181021747
2485	 0.225093119085603
2486	 0.224754705841309
2487	 0.224998088151798
2488	 0.225979495871927
2489	 0.225244639642311
2490	 0.225321629456554
2491	 0.22582153637974
2492	 0.225414282346651
2493	 0.226777790993675
2494	 0.226270742421919
2495	 0.225583122995003
2496	 0.226331571775356
2497	 0.225470304248319
2498	 0.226153259235901
2499	 0.226697143802614
2500	 0.225849143293641
