Wavelength	signature0023.asd
350	 0.162471841065466
351	 0.162250539385241
352	 0.15880840811263
353	 0.158525856864537
354	 0.164891962245077
355	 0.156973282318384
356	 0.152372126891175
357	 0.154945696563174
358	 0.156539463761259
359	 0.157877997991398
360	 0.156009923253512
361	 0.152528390763403
362	 0.154702945704405
363	 0.155995707205644
364	 0.153682661809188
365	 0.149803560579972
366	 0.156073432261067
367	 0.158204586499625
368	 0.154530633062491
369	 0.149342477771097
370	 0.151563162629707
371	 0.154229369288621
372	 0.15516831148277
373	 0.155675658752775
374	 0.155807452436053
375	 0.155602533749413
376	 0.155050431639774
377	 0.154086768295286
378	 0.151349097821933
379	 0.151468274242683
380	 0.155681511474271
381	 0.156242220337525
382	 0.154416912844031
383	 0.155193390744146
384	 0.16065014112638
385	 0.156684593219312
386	 0.155587799968074
387	 0.157451224501639
388	 0.155938201796807
389	 0.156617689078781
390	 0.157001104073947
391	 0.15693072250533
392	 0.15930771110169
393	 0.159177051856052
394	 0.15868030671293
395	 0.159457718599504
396	 0.159310289511382
397	 0.158035203416599
398	 0.158976490747138
399	 0.163763464462656
400	 0.163045411010145
401	 0.161101299410074
402	 0.161117544044274
403	 0.164186731910367
404	 0.163712532402807
405	 0.16182971057822
406	 0.16125643211858
407	 0.163977748416418
408	 0.164162533100141
409	 0.163716776137909
410	 0.164629819627613
411	 0.164722593638178
412	 0.164485190284973
413	 0.16468493387345
414	 0.16578638761846
415	 0.166234613740416
416	 0.165929738966366
417	 0.165677921478642
418	 0.166767193979462
419	 0.168030048787265
420	 0.168886872102
421	 0.169000966236796
422	 0.168126773264368
423	 0.168670155270391
424	 0.169724198145302
425	 0.170063935997422
426	 0.171153334616515
427	 0.17228232960577
428	 0.172858450109952
429	 0.172665143152475
430	 0.173655149917879
431	 0.174725628510425
432	 0.175113248086752
433	 0.174949765955082
434	 0.175368148155757
435	 0.176287631062362
436	 0.177237189627749
437	 0.177526872021503
438	 0.178348591774579
439	 0.179457387021577
440	 0.180041555631431
441	 0.180522977923895
442	 0.181325674115373
443	 0.182219867426974
444	 0.1823497371566
445	 0.183299284065129
446	 0.183867650772667
447	 0.183676714882854
448	 0.185895175619008
449	 0.186801906096745
450	 0.186730986959737
451	 0.187384932875033
452	 0.188307134075695
453	 0.189004378357916
454	 0.189417206522371
455	 0.18988793015303
456	 0.190251622510626
457	 0.190680207581726
458	 0.191307438902396
459	 0.192117243791617
460	 0.19269531844607
461	 0.193073853545417
462	 0.193497175799395
463	 0.194353733801861
464	 0.194936297967031
465	 0.195185710971368
466	 0.195585361122447
467	 0.195606180789926
468	 0.196018021174602
469	 0.196894435914051
470	 0.196549847376072
471	 0.197066409327517
472	 0.198072503031258
473	 0.198550587459465
474	 0.198447692636138
475	 0.1984851249496
476	 0.199044063428422
477	 0.200085561299614
478	 0.200341410224431
479	 0.20053860788066
480	 0.201253243786433
481	 0.202298430485904
482	 0.20258014228517
483	 0.202650403553387
484	 0.203278892631878
485	 0.203670206970861
486	 0.204115851537558
487	 0.204732567389476
488	 0.205446774283973
489	 0.205848912297082
490	 0.206307319018514
491	 0.207040615341277
492	 0.207813312627878
493	 0.20852381174296
494	 0.208918481685763
495	 0.209000486856834
496	 0.209981338824048
497	 0.210793635689
498	 0.211321960820785
499	 0.212213011897468
500	 0.21326816964941
501	 0.214004912066505
502	 0.214305546669321
503	 0.214768033523185
504	 0.215426926715937
505	 0.216258005435394
506	 0.217140895168994
507	 0.217730227571399
508	 0.218460128173823
509	 0.219240839283905
510	 0.21959696075807
511	 0.220389610330528
512	 0.221199330771666
513	 0.221741890398026
514	 0.22243709998253
515	 0.223137468101335
516	 0.223769471408814
517	 0.224329055995488
518	 0.225051499251643
519	 0.225759281153051
520	 0.226460256169151
521	 0.227327848668094
522	 0.227924681677548
523	 0.228489143605396
524	 0.229206500573293
525	 0.229840419820507
526	 0.230506562856281
527	 0.231281369545316
528	 0.232184364115712
529	 0.233024100046547
530	 0.233719538428477
531	 0.234350440309753
532	 0.235147238243705
533	 0.23607480134218
534	 0.236855014659213
535	 0.237413085552924
536	 0.238354824664459
537	 0.239219870743627
538	 0.239982963781167
539	 0.240823664595825
540	 0.241779287443133
541	 0.242683198890689
542	 0.243526173321577
543	 0.244511618779594
544	 0.245384995093742
545	 0.246367570120061
546	 0.247597442499011
547	 0.248597807391079
548	 0.249517381237582
549	 0.250474570650238
550	 0.251541726846945
551	 0.252523028220727
552	 0.253674817862436
553	 0.254999125635537
554	 0.256017204561396
555	 0.257132861627793
556	 0.258385377537929
557	 0.259667727015204
558	 0.260729728063377
559	 0.261817635943042
560	 0.263040940803227
561	 0.264371153836043
562	 0.265592465712378
563	 0.266783731739787
564	 0.268033004441018
565	 0.269359727462836
566	 0.270626826341151
567	 0.271824686942632
568	 0.273006068462082
569	 0.274270262649925
570	 0.275429322378234
571	 0.276453878226535
572	 0.277491024881152
573	 0.278732526193398
574	 0.279962831634223
575	 0.281082914691804
576	 0.282488611190912
577	 0.283908346005863
578	 0.285271749293002
579	 0.286595887561047
580	 0.287882436770235
581	 0.28925082595972
582	 0.290693144896991
583	 0.292037725318152
584	 0.293330321479104
585	 0.294602947443286
586	 0.295819405686488
587	 0.296717847940646
588	 0.297759122033769
589	 0.298864894317927
590	 0.299691748748976
591	 0.300457363034514
592	 0.30125121552394
593	 0.302087293217707
594	 0.302883635733244
595	 0.303653267039922
596	 0.304377582425167
597	 0.305042594336308
598	 0.3056935092264
599	 0.306338028974365
600	 0.306963679648769
601	 0.307543324639569
602	 0.308106474137636
603	 0.308693195738177
604	 0.309303731854631
605	 0.309861250438367
606	 0.310338101976544
607	 0.31084715326113
608	 0.311449382569648
609	 0.311696826872087
610	 0.31210979913909
611	 0.312766144800623
612	 0.313304581861133
613	 0.313631478414386
614	 0.313984568715072
615	 0.314503903092699
616	 0.314950269595061
617	 0.315345439307175
618	 0.315770042457469
619	 0.31629688989729
620	 0.316741122532391
621	 0.317107791832795
622	 0.317507858036891
623	 0.31813803968262
624	 0.318603936544874
625	 0.319016452851759
626	 0.319523271810089
627	 0.320041404473207
628	 0.320630145661169
629	 0.321202847015231
630	 0.321640723848352
631	 0.322162965667993
632	 0.322789642671125
633	 0.323442006765791
634	 0.32394008656287
635	 0.324568414438095
636	 0.325232026764844
637	 0.325825804719059
638	 0.326572051193706
639	 0.327218742285894
640	 0.327813750524726
641	 0.328561978461253
642	 0.329218199129183
643	 0.32990536531992
644	 0.330651158757565
645	 0.331262513066778
646	 0.33181602221702
647	 0.332445935371229
648	 0.333205081842881
649	 0.333741927059423
650	 0.334378038571267
651	 0.335068443749923
652	 0.335521587795227
653	 0.336073535764721
654	 0.336743130927715
655	 0.3374610059148
656	 0.338088176445537
657	 0.338653445993405
658	 0.339284497911554
659	 0.340050984385042
660	 0.34057403525669
661	 0.341182969085275
662	 0.341960276872606
663	 0.342744916118279
664	 0.343428312530281
665	 0.344149013187344
666	 0.344973359564559
667	 0.345720085965311
668	 0.346452846308101
669	 0.347191094997079
670	 0.347947519698131
671	 0.348770305749707
672	 0.349544301233255
673	 0.350243892144392
674	 0.350935282048205
675	 0.351542459531473
676	 0.352199351044522
677	 0.352955942161996
678	 0.353575969101906
679	 0.354188994596614
680	 0.354815477661873
681	 0.355453414398609
682	 0.356219106997689
683	 0.356938140011278
684	 0.357571047353523
685	 0.358235200631433
686	 0.358966535767895
687	 0.359708996876665
688	 0.360428336090155
689	 0.361205585875078
690	 0.361904162587472
691	 0.362619235177401
692	 0.363479881018934
693	 0.364178969980844
694	 0.364919580966572
695	 0.365707537329836
696	 0.366319743857356
697	 0.367002233953032
698	 0.367708279202565
699	 0.368365069812788
700	 0.368982241714369
701	 0.36963163221946
702	 0.370277064995593
703	 0.370852200077621
704	 0.37142278762851
705	 0.371933297077604
706	 0.372431313275877
707	 0.373063793370526
708	 0.373603886656267
709	 0.374033510764229
710	 0.374435445978596
711	 0.375040424335773
712	 0.375550731352281
713	 0.375990402429826
714	 0.376488702794093
715	 0.376966083560724
716	 0.377447259684518
717	 0.377929063052671
718	 0.378376062196236
719	 0.378738468856682
720	 0.379101893714532
721	 0.379530818890566
722	 0.37999215431003
723	 0.380426456481238
724	 0.380807752099246
725	 0.381142807523584
726	 0.381507517259104
727	 0.38189219600099
728	 0.382296262121706
729	 0.382723035197599
730	 0.383056890781226
731	 0.383386460827469
732	 0.383733509550382
733	 0.383911014406713
734	 0.384205208015957
735	 0.384607334662134
736	 0.385004341689604
737	 0.385317156652869
738	 0.385543468082668
739	 0.385753268215981
740	 0.386051405828587
741	 0.386358906663954
742	 0.386643134347462
743	 0.386899392487809
744	 0.387157265320586
745	 0.387400991976062
746	 0.387628969505037
747	 0.387855655150082
748	 0.388146155320003
749	 0.388358371572374
750	 0.388524093930741
751	 0.388760573913629
752	 0.388992774653682
753	 0.389250796254343
754	 0.389508926193882
755	 0.389669960147521
756	 0.389874461497688
757	 0.390068054031729
758	 0.390211190871453
759	 0.390420171351272
760	 0.390582146662546
761	 0.39071518453838
762	 0.390872430063176
763	 0.39097317560679
764	 0.391167463847406
765	 0.391389166142692
766	 0.391409280525757
767	 0.391573157960468
768	 0.391734973103766
769	 0.391800663631125
770	 0.391899027554281
771	 0.392122889217046
772	 0.392286322127953
773	 0.392244639878344
774	 0.392293977209074
775	 0.392473769758107
776	 0.392688641109048
777	 0.392786067091517
778	 0.392831979079563
779	 0.392897057614434
780	 0.393006875639314
781	 0.393132532959486
782	 0.393271092855301
783	 0.393379003287111
784	 0.39343692794519
785	 0.393490997690164
786	 0.393551172478371
787	 0.393647331544648
788	 0.393775015650648
789	 0.393765621106285
790	 0.39380092287082
791	 0.393882664519781
792	 0.393895224135558
793	 0.39390184949796
794	 0.393962874408995
795	 0.394058115260981
796	 0.394073359192642
797	 0.39416073396113
798	 0.394234013982727
799	 0.394232408090225
800	 0.394282713149317
801	 0.394306384398409
802	 0.39432512228939
803	 0.394372547173391
804	 0.394377055966778
805	 0.394372394003178
806	 0.394384054019126
807	 0.394424063362225
808	 0.394473085305498
809	 0.394481697395531
810	 0.394473220639317
811	 0.394552592125653
812	 0.394612018688246
813	 0.394579601331161
814	 0.394483219450608
815	 0.394539480099977
816	 0.394606177043704
817	 0.394700766501993
818	 0.394818667580741
819	 0.394673333005705
820	 0.394649214063301
821	 0.394733419239991
822	 0.394705135180428
823	 0.394615931415406
824	 0.394655899564451
825	 0.394787685325596
826	 0.394763854494197
827	 0.394699750979491
828	 0.394673119689342
829	 0.39467960403472
830	 0.394594601839336
831	 0.394644703663177
832	 0.394704473228458
833	 0.394641101459697
834	 0.394531299801085
835	 0.394580667172519
836	 0.394672052903168
837	 0.394615820900894
838	 0.394514882369992
839	 0.394469478913124
840	 0.394469282937006
841	 0.394444099575455
842	 0.394456981119349
843	 0.394487644811136
844	 0.394528389257087
845	 0.39458436218603
846	 0.3945614317184
847	 0.394526762755467
848	 0.39453906143949
849	 0.394598805566932
850	 0.394577955580093
851	 0.39448802372033
852	 0.394413660728189
853	 0.394533317697016
854	 0.394510160836353
855	 0.394434087441937
856	 0.394456933463956
857	 0.394377496531973
858	 0.394360572468258
859	 0.394429663070819
860	 0.394513912574546
861	 0.394479249988252
862	 0.394506220008195
863	 0.394606994008628
864	 0.39465088402933
865	 0.394570824716286
866	 0.394472157212566
867	 0.394451382478044
868	 0.394547038203029
869	 0.394509928408161
870	 0.394475093184788
871	 0.394550752389217
872	 0.394695592795335
873	 0.394571280589718
874	 0.394493388655432
875	 0.394660460662219
876	 0.394693018963215
877	 0.394693592787965
878	 0.394685321005393
879	 0.394690779507743
880	 0.394784179275418
881	 0.394839641811152
882	 0.394845433524162
883	 0.394848874293089
884	 0.394923850598853
885	 0.395015342602483
886	 0.39501507910685
887	 0.394871527721572
888	 0.394941350369429
889	 0.394970221854985
890	 0.394970203333294
891	 0.395122237346438
892	 0.39527076659338
893	 0.395254031230006
894	 0.395139684341305
895	 0.395178207850079
896	 0.395336133697414
897	 0.395442067803283
898	 0.395470590294314
899	 0.39557381770204
900	 0.395715628948542
901	 0.395786422276973
902	 0.395768019906892
903	 0.395786832728384
904	 0.39600121018649
905	 0.396223706156756
906	 0.396317832946542
907	 0.396361841090832
908	 0.396357273898336
909	 0.396349110944928
910	 0.396409717672457
911	 0.396645323209877
912	 0.396809451544267
913	 0.396913291787841
914	 0.397018225547276
915	 0.397123358594075
916	 0.397121569755635
917	 0.397152900865912
918	 0.397347490991509
919	 0.397605464073777
920	 0.397749863996183
921	 0.397766119712827
922	 0.397764156843741
923	 0.398029518256064
924	 0.398161373667069
925	 0.398157595259405
926	 0.398193888349293
927	 0.398488240092363
928	 0.398637548196056
929	 0.398615062084158
930	 0.398619149961292
931	 0.399029846139554
932	 0.399152319095922
933	 0.399042742154527
934	 0.39906693148289
935	 0.399315503406795
936	 0.399437405754137
937	 0.399449648183385
938	 0.399553494460425
939	 0.399919956629887
940	 0.399927158213303
941	 0.399773325968445
942	 0.399951056335684
943	 0.400369511442588
944	 0.400433145927872
945	 0.400348116072428
946	 0.400575271299858
947	 0.400849057614859
948	 0.400793898793464
949	 0.40065480488492
950	 0.400836361207852
951	 0.401057580540218
952	 0.401267276776557
953	 0.401404427121023
954	 0.401466419718875
955	 0.40163764898338
956	 0.401997683923235
957	 0.402225653677417
958	 0.402102312429729
959	 0.402442616885464
960	 0.402508337037412
961	 0.402481521668099
962	 0.402722200957882
963	 0.402800433326432
964	 0.402977729983459
965	 0.403132636404035
966	 0.403158449187783
967	 0.403431786468198
968	 0.403748849764242
969	 0.403902586067595
970	 0.403926858355009
971	 0.404498935714841
972	 0.404352684503077
973	 0.404158765874492
974	 0.40468138477948
975	 0.405504201952824
976	 0.405393339130569
977	 0.405108693326029
978	 0.405421195513148
979	 0.405975989845688
980	 0.406005266994961
981	 0.406165720113878
982	 0.406679499096705
983	 0.406634069708641
984	 0.406651212922418
985	 0.406877382146065
986	 0.407358754813247
987	 0.408029753009973
988	 0.407826184237112
989	 0.40779505413664
990	 0.408209220459119
991	 0.408286528624752
992	 0.408061180316493
993	 0.408432078435925
994	 0.409266161011926
995	 0.409661360920655
996	 0.409785108295654
997	 0.409711702567617
998	 0.409917064794128
999	 0.410614845038256
1000	 0.409882123413934
1001	 0.411567302146497
1002	 0.411808492459681
1003	 0.411967341488557
1004	 0.412094773693213
1005	 0.412224106339983
1006	 0.412404869514859
1007	 0.412517567368453
1008	 0.412687178094389
1009	 0.412859139713105
1010	 0.413027321193969
1011	 0.413209250458844
1012	 0.413399344586053
1013	 0.413442063702951
1014	 0.413591445218777
1015	 0.4137756939963
1016	 0.413838054754736
1017	 0.413959801458799
1018	 0.414200099305815
1019	 0.414276979159693
1020	 0.414294811776116
1021	 0.414525320583402
1022	 0.414612202179671
1023	 0.414609211034196
1024	 0.414703772569406
1025	 0.414885810790341
1026	 0.415013464193238
1027	 0.415157450494539
1028	 0.41527500333592
1029	 0.415395888927223
1030	 0.415555820069066
1031	 0.415673440927756
1032	 0.415818414699318
1033	 0.415989590846001
1034	 0.41607998432366
1035	 0.41616347251479
1036	 0.416352479882252
1037	 0.41654785697415
1038	 0.416735329599186
1039	 0.416963695306075
1040	 0.417143664986154
1041	 0.417245335624384
1042	 0.417390090756511
1043	 0.417539948670482
1044	 0.417768661503981
1045	 0.418025519800067
1046	 0.41818014308347
1047	 0.418286219271397
1048	 0.418398623910679
1049	 0.418599341493772
1050	 0.41883155028835
1051	 0.41903446902572
1052	 0.419199452150116
1053	 0.41935084406743
1054	 0.419421629390292
1055	 0.419582701855026
1056	 0.419783525496638
1057	 0.419958052384159
1058	 0.42018554127376
1059	 0.420305105668446
1060	 0.42044142760952
1061	 0.420691412488958
1062	 0.420892689764787
1063	 0.421166919760437
1064	 0.421410952764139
1065	 0.42151256464086
1066	 0.421692996807819
1067	 0.421912878175626
1068	 0.422066274117519
1069	 0.422213457626206
1070	 0.422357385216735
1071	 0.422485555152582
1072	 0.422501398516456
1073	 0.422601759673471
1074	 0.422799976470409
1075	 0.422944388414149
1076	 0.423100495176076
1077	 0.423328869493939
1078	 0.423501831090547
1079	 0.423647539797335
1080	 0.423827048615965
1081	 0.423945029097798
1082	 0.424060138032909
1083	 0.424167686636954
1084	 0.424287959075391
1085	 0.424369944899522
1086	 0.424396789411967
1087	 0.424464144257061
1088	 0.424524035023889
1089	 0.424627397125984
1090	 0.424751772303945
1091	 0.424861494493322
1092	 0.424926496667841
1093	 0.424987310617583
1094	 0.425020703434055
1095	 0.425041759303775
1096	 0.425177274350698
1097	 0.425329866294295
1098	 0.42554144217256
1099	 0.426033611842675
1100	 0.426151177923775
1101	 0.426018352705078
1102	 0.426050642980523
1103	 0.426026454875988
1104	 0.425869363365539
1105	 0.425996476702039
1106	 0.426250255795372
1107	 0.426336860251426
1108	 0.426384347864388
1109	 0.426395580789405
1110	 0.426503649538636
1111	 0.426656134922004
1112	 0.426727434719653
1113	 0.426800924935284
1114	 0.426871918766885
1115	 0.42692434872808
1116	 0.426928345905196
1117	 0.426991610218193
1118	 0.427119244134462
1119	 0.4271999714909
1120	 0.427278567788014
1121	 0.427308400082186
1122	 0.427361062216031
1123	 0.42740155484369
1124	 0.427514673714256
1125	 0.427690902706844
1126	 0.427811964663178
1127	 0.427874872970332
1128	 0.427864559459198
1129	 0.427891815158605
1130	 0.427987618887217
1131	 0.428169023786194
1132	 0.428281473729322
1133	 0.4284284304926
1134	 0.428516780390468
1135	 0.428516675808364
1136	 0.42859762754662
1137	 0.428740221957747
1138	 0.428809313458869
1139	 0.428879436285297
1140	 0.428931545800606
1141	 0.428887756147717
1142	 0.428862750716959
1143	 0.42888848297066
1144	 0.428868667892601
1145	 0.428867826394967
1146	 0.428894879527885
1147	 0.428882966834708
1148	 0.428857992335431
1149	 0.428819167942152
1150	 0.428714207776196
1151	 0.42869220191615
1152	 0.428709890686041
1153	 0.428714672433477
1154	 0.428745910549594
1155	 0.428789094359814
1156	 0.428834279270966
1157	 0.428870605948492
1158	 0.428935756585585
1159	 0.429017893085862
1160	 0.429071842751306
1161	 0.429129186516705
1162	 0.429199463546384
1163	 0.42927686357318
1164	 0.429373095061573
1165	 0.429492077029746
1166	 0.429584592578012
1167	 0.429676865060446
1168	 0.429771238049314
1169	 0.429858455246858
1170	 0.429937799758697
1171	 0.430025558248561
1172	 0.430115720244206
1173	 0.430195002965573
1174	 0.430262113909859
1175	 0.430349323425636
1176	 0.430381682459022
1177	 0.430437072011362
1178	 0.430519617374808
1179	 0.430585222990104
1180	 0.430695301839099
1181	 0.430777380587484
1182	 0.430846562118788
1183	 0.430905079353297
1184	 0.430960679137358
1185	 0.43101524715597
1186	 0.43104151744743
1187	 0.431092292881915
1188	 0.431180593599747
1189	 0.431230088609553
1190	 0.431244022566114
1191	 0.431296039262046
1192	 0.431369649345113
1193	 0.431409749934758
1194	 0.431445123715699
1195	 0.431510310023159
1196	 0.431468110616297
1197	 0.431429859686908
1198	 0.431501328601404
1199	 0.431651724825784
1200	 0.431698804200697
1201	 0.431774034139463
1202	 0.431849505943679
1203	 0.431825316770835
1204	 0.431893071782452
1205	 0.432082724190807
1206	 0.432181125153904
1207	 0.432260754759909
1208	 0.432310697754452
1209	 0.432313310546323
1210	 0.432334669410276
1211	 0.432288031871892
1212	 0.432325393313619
1213	 0.4324381960083
1214	 0.432532251715888
1215	 0.432608784931625
1216	 0.432714742169192
1217	 0.432770035010896
1218	 0.432768980346106
1219	 0.432792890499578
1220	 0.432818368722194
1221	 0.432840784343064
1222	 0.432832069162391
1223	 0.432872258083472
1224	 0.432941765597143
1225	 0.433005465030395
1226	 0.433116335069914
1227	 0.433173157753811
1228	 0.433209860466964
1229	 0.433231484268728
1230	 0.433173145303314
1231	 0.433194452294153
1232	 0.433280709136535
1233	 0.433318393681422
1234	 0.433346563946079
1235	 0.433417641187175
1236	 0.433469759432453
1237	 0.433482273826997
1238	 0.433519249468408
1239	 0.433579519267616
1240	 0.433648333158517
1241	 0.433707856596608
1242	 0.433778652495052
1243	 0.433901542066703
1244	 0.433972047362246
1245	 0.434001882486215
1246	 0.434049719307583
1247	 0.434101157720204
1248	 0.434135449265862
1249	 0.434142337939399
1250	 0.434184076752245
1251	 0.434235782476365
1252	 0.434281797252486
1253	 0.434357508669951
1254	 0.434418921641772
1255	 0.434471338990353
1256	 0.434491895969864
1257	 0.434563218121245
1258	 0.434670154071381
1259	 0.434722406092165
1260	 0.434774909119448
1261	 0.434815321664965
1262	 0.434810193010654
1263	 0.434836112388166
1264	 0.434880718745864
1265	 0.434918161445677
1266	 0.434954845629887
1267	 0.434987085279388
1268	 0.435013751192306
1269	 0.435053944949341
1270	 0.435104580266461
1271	 0.43513823473481
1272	 0.435181878264234
1273	 0.435210654620768
1274	 0.435209365047501
1275	 0.435220656371109
1276	 0.435208621018856
1277	 0.435237261268108
1278	 0.435286581597837
1279	 0.435365695585817
1280	 0.435409752796084
1281	 0.435472960104899
1282	 0.435514498813234
1283	 0.435515510947331
1284	 0.435547461054938
1285	 0.435599594704614
1286	 0.435645307437574
1287	 0.435691805592268
1288	 0.435733306312179
1289	 0.435786420636901
1290	 0.435811522208878
1291	 0.435812221624422
1292	 0.435828957747371
1293	 0.435842998333365
1294	 0.435850205036627
1295	 0.435854419946188
1296	 0.435864309959101
1297	 0.435869275137868
1298	 0.43587318904645
1299	 0.435890960817783
1300	 0.435906642111699
1301	 0.435893696764436
1302	 0.435858785151234
1303	 0.435829289551079
1304	 0.435776146292563
1305	 0.435752866002265
1306	 0.435755011097908
1307	 0.435718444555747
1308	 0.435676511651412
1309	 0.435634332529336
1310	 0.435561931315439
1311	 0.435510615860262
1312	 0.435507478500062
1313	 0.435427530905584
1314	 0.435290090330219
1315	 0.435191810163597
1316	 0.435066851284678
1317	 0.434963315937731
1318	 0.434912745931659
1319	 0.4348221628394
1320	 0.434697313207571
1321	 0.434587996720148
1322	 0.434485401781556
1323	 0.434370703699137
1324	 0.43425281509585
1325	 0.434134711447214
1326	 0.434014297921981
1327	 0.433880281650023
1328	 0.433763043451976
1329	 0.433655522153998
1330	 0.433549142499603
1331	 0.433430567846655
1332	 0.433370334347851
1333	 0.433379802616217
1334	 0.433275224395638
1335	 0.433176963379777
1336	 0.433012369493251
1337	 0.432702380847658
1338	 0.432524047732442
1339	 0.432389248601808
1340	 0.432245616205323
1341	 0.432160662319875
1342	 0.432026056029392
1343	 0.431856150973795
1344	 0.431705949735416
1345	 0.431556159388751
1346	 0.431397529146724
1347	 0.431256771432174
1348	 0.431085207892531
1349	 0.4308854111181
1350	 0.430689877443788
1351	 0.430472273138161
1352	 0.430241577429281
1353	 0.430012870017107
1354	 0.429793141397959
1355	 0.429581019399376
1356	 0.429379261253087
1357	 0.429167376343484
1358	 0.428951258540009
1359	 0.428756000761734
1360	 0.428563014723794
1361	 0.428378381129718
1362	 0.428238530528637
1363	 0.428036868984022
1364	 0.427796177778234
1365	 0.42757915884345
1366	 0.427349443595569
1367	 0.427122668498355
1368	 0.426943457814129
1369	 0.426691877399086
1370	 0.426411029504541
1371	 0.426098941877283
1372	 0.42576160013593
1373	 0.425377370180048
1374	 0.425002483222859
1375	 0.424508844614448
1376	 0.42393036402669
1377	 0.423311520321076
1378	 0.422556976189497
1379	 0.421747497190613
1380	 0.420894629368322
1381	 0.419912359473576
1382	 0.418819250817233
1383	 0.417657179629652
1384	 0.41648196197701
1385	 0.415201679846136
1386	 0.413988784671446
1387	 0.412751721434908
1388	 0.411629533110836
1389	 0.41050054185431
1390	 0.409514356643725
1391	 0.408662863955922
1392	 0.407804513548468
1393	 0.407009691828038
1394	 0.406228984441466
1395	 0.40553134128238
1396	 0.404730932118118
1397	 0.403973674410668
1398	 0.403082863589225
1399	 0.402096925412437
1400	 0.40104964526832
1401	 0.39992411406938
1402	 0.398741317757533
1403	 0.397410728921799
1404	 0.396158815785503
1405	 0.394884944227883
1406	 0.393633544529438
1407	 0.392378515621912
1408	 0.39120307499534
1409	 0.390073390395736
1410	 0.388957910542167
1411	 0.387982527046022
1412	 0.387149207354407
1413	 0.386432244764307
1414	 0.385878659348661
1415	 0.385486716128144
1416	 0.385234267507687
1417	 0.385091936672774
1418	 0.385095693330116
1419	 0.385146187357164
1420	 0.385343998136014
1421	 0.385508641500744
1422	 0.385736798116303
1423	 0.385941057864709
1424	 0.386159211131193
1425	 0.386360944786736
1426	 0.386545807239828
1427	 0.386772925779736
1428	 0.387012125246595
1429	 0.387262502299587
1430	 0.387540144467533
1431	 0.387826192205375
1432	 0.388118750735378
1433	 0.388415520171235
1434	 0.388752285163838
1435	 0.389049775320405
1436	 0.389313377833439
1437	 0.389606675200376
1438	 0.389899048591612
1439	 0.390190982172474
1440	 0.390518900685309
1441	 0.390807671192446
1442	 0.391066345168932
1443	 0.391331511254465
1444	 0.391580304030557
1445	 0.391834312694376
1446	 0.392085168930807
1447	 0.392327906836748
1448	 0.392569818894374
1449	 0.392755463969074
1450	 0.392938166214313
1451	 0.393129940148255
1452	 0.393285268717525
1453	 0.393457852497156
1454	 0.393611283956981
1455	 0.39369262309622
1456	 0.393818287383547
1457	 0.393929259622758
1458	 0.394073781414649
1459	 0.394276035669128
1460	 0.394409301554072
1461	 0.394518122058436
1462	 0.394620322205129
1463	 0.394647226226524
1464	 0.394775420689361
1465	 0.394956059750169
1466	 0.395130190847963
1467	 0.395353332924759
1468	 0.395554163142528
1469	 0.395720523113798
1470	 0.395950961184996
1471	 0.396207116079838
1472	 0.3964914304771
1473	 0.396841057883663
1474	 0.397148421982445
1475	 0.397457024820148
1476	 0.397764804557282
1477	 0.398049630718328
1478	 0.398356798125206
1479	 0.398693105077174
1480	 0.399003994788179
1481	 0.399306387415537
1482	 0.399608432688692
1483	 0.399889617751829
1484	 0.4001919159589
1485	 0.40052020832354
1486	 0.400824172086322
1487	 0.401120543172126
1488	 0.401413243266126
1489	 0.401686100170795
1490	 0.40197059251529
1491	 0.402239228677184
1492	 0.402568033478323
1493	 0.402868335368685
1494	 0.403134199202867
1495	 0.40342197467359
1496	 0.403662247775659
1497	 0.40394076743692
1498	 0.40422818126681
1499	 0.404446051131966
1500	 0.40467581610685
1501	 0.404914741514434
1502	 0.405124122937617
1503	 0.40537527523172
1504	 0.405653043274765
1505	 0.405875142686975
1506	 0.406109038725399
1507	 0.406336518398611
1508	 0.406560556691353
1509	 0.406780857460308
1510	 0.406990332294732
1511	 0.407211169721807
1512	 0.407435558611838
1513	 0.407654101351405
1514	 0.407887433524597
1515	 0.408093592136367
1516	 0.408276125099882
1517	 0.408477192428489
1518	 0.408670909800335
1519	 0.40887583298792
1520	 0.409113950097371
1521	 0.409298522495025
1522	 0.409463300260386
1523	 0.409611222235315
1524	 0.409718977607077
1525	 0.40984566684439
1526	 0.409964102043671
1527	 0.410093107820793
1528	 0.410220064821815
1529	 0.410358736612991
1530	 0.410522549311756
1531	 0.410665453953199
1532	 0.410808846532814
1533	 0.410938267803776
1534	 0.411036189679093
1535	 0.411158125564758
1536	 0.411279718451019
1537	 0.411422850847967
1538	 0.411615810617234
1539	 0.41175234780865
1540	 0.41185565514193
1541	 0.411979477462086
1542	 0.412089601626989
1543	 0.412190032234152
1544	 0.41231359766524
1545	 0.412418853719783
1546	 0.412472508676978
1547	 0.41256327808624
1548	 0.41268295156076
1549	 0.412786526673508
1550	 0.412904867148828
1551	 0.413003258518085
1552	 0.413083287705576
1553	 0.413157961769774
1554	 0.413213477727628
1555	 0.413281919719305
1556	 0.413354895333256
1557	 0.413422131588999
1558	 0.413477756176202
1559	 0.413560827771267
1560	 0.413651551988502
1561	 0.413748374408748
1562	 0.413879162055744
1563	 0.413990599486568
1564	 0.414110905849092
1565	 0.414197011150126
1566	 0.414263170020356
1567	 0.414321966666889
1568	 0.414308315679678
1569	 0.414360753187965
1570	 0.414456438085716
1571	 0.414542662357559
1572	 0.414705338136627
1573	 0.414797516530357
1574	 0.414826433843963
1575	 0.414869162307371
1576	 0.414893171128096
1577	 0.414912605767922
1578	 0.415015268225859
1579	 0.415098818426455
1580	 0.415169970615034
1581	 0.415243444472315
1582	 0.415277740258239
1583	 0.415337771486505
1584	 0.415452433370122
1585	 0.415544664441591
1586	 0.415598739234748
1587	 0.415672167939243
1588	 0.415719603211118
1589	 0.41573692484293
1590	 0.415793562473332
1591	 0.415832540339922
1592	 0.415832775605366
1593	 0.415865394661741
1594	 0.415936265841415
1595	 0.416017341628807
1596	 0.416089831629657
1597	 0.41615781214094
1598	 0.416229053832005
1599	 0.416273929169513
1600	 0.416306617639793
1601	 0.41635799855013
1602	 0.416404596206014
1603	 0.416440993551154
1604	 0.416510312922783
1605	 0.416594909657794
1606	 0.416648718679382
1607	 0.416691363575282
1608	 0.416711730644811
1609	 0.416756290259132
1610	 0.41680781106069
1611	 0.416846175770652
1612	 0.416939714538565
1613	 0.417008448802891
1614	 0.417066213275684
1615	 0.417139092270598
1616	 0.417169806124664
1617	 0.417183283402434
1618	 0.417208506245623
1619	 0.417223313867386
1620	 0.417241632884164
1621	 0.417261500675524
1622	 0.417302701040675
1623	 0.417345599869633
1624	 0.417392600566467
1625	 0.417475899071097
1626	 0.417484927033828
1627	 0.417458564747577
1628	 0.417407737516807
1629	 0.417384313867144
1630	 0.417429554077487
1631	 0.417474568760766
1632	 0.417553352192209
1633	 0.417684908443157
1634	 0.417761549373234
1635	 0.417798245805847
1636	 0.417822027289452
1637	 0.417815410086921
1638	 0.417846539978245
1639	 0.417921734048763
1640	 0.417993381758835
1641	 0.418042309361378
1642	 0.41804144886651
1643	 0.418073109966213
1644	 0.418146668036722
1645	 0.418174294305828
1646	 0.418194459866298
1647	 0.418205159474354
1648	 0.418153861223733
1649	 0.418132133814762
1650	 0.418154921669664
1651	 0.418139815418256
1652	 0.418068286848846
1653	 0.418061570132174
1654	 0.418083124298886
1655	 0.418093121828459
1656	 0.41817167750805
1657	 0.418204795079236
1658	 0.418157456149435
1659	 0.418162533646718
1660	 0.418198540621154
1661	 0.418219725253579
1662	 0.418276252504594
1663	 0.41829946612104
1664	 0.418271306621178
1665	 0.418272898452526
1666	 0.418281222635254
1667	 0.418288469169029
1668	 0.418324585507397
1669	 0.418332398935538
1670	 0.418325367426632
1671	 0.418304951222663
1672	 0.418255786901282
1673	 0.418216868690397
1674	 0.418152764375362
1675	 0.418125548117837
1676	 0.41812258086987
1677	 0.418125225233307
1678	 0.418177630945484
1679	 0.418183540708353
1680	 0.418156909988269
1681	 0.418145245097271
1682	 0.418131369714474
1683	 0.418095726923062
1684	 0.41804816978866
1685	 0.418021845780976
1686	 0.417989158493769
1687	 0.41794092094572
1688	 0.41787824403903
1689	 0.41787064516524
1690	 0.417887260527101
1691	 0.417881555371072
1692	 0.417926016722727
1693	 0.417927150981443
1694	 0.417864633893096
1695	 0.417830510462083
1696	 0.417830064893518
1697	 0.417789393273771
1698	 0.417723885041202
1699	 0.417652080837729
1700	 0.417529586414482
1701	 0.417488176049383
1702	 0.417478332685625
1703	 0.4174712724855
1704	 0.417550262392014
1705	 0.417503076609814
1706	 0.417374181870912
1707	 0.417298422732459
1708	 0.417175112772839
1709	 0.417127444193049
1710	 0.417168176916676
1711	 0.41712724665738
1712	 0.417059998152469
1713	 0.417001816195916
1714	 0.416902781123465
1715	 0.416857429945529
1716	 0.41687357695688
1717	 0.416798538676904
1718	 0.416699357105846
1719	 0.416560592390948
1720	 0.416441377257023
1721	 0.416351299130693
1722	 0.416273096747803
1723	 0.41617565316381
1724	 0.415987651388146
1725	 0.415790324328221
1726	 0.415653761530565
1727	 0.415536173030366
1728	 0.415452379975501
1729	 0.415411775241978
1730	 0.415298516092397
1731	 0.415144379512778
1732	 0.415031442101728
1733	 0.414869879484857
1734	 0.414682159436316
1735	 0.41451226322302
1736	 0.414373296457864
1737	 0.414292211981492
1738	 0.414163416961714
1739	 0.41404669484227
1740	 0.413873682433235
1741	 0.413603394182363
1742	 0.413417009967136
1743	 0.413231817264267
1744	 0.413079544012053
1745	 0.413007653313012
1746	 0.412899427018328
1747	 0.412806530220455
1748	 0.412675670706164
1749	 0.412489262815651
1750	 0.412348737589768
1751	 0.412217256568823
1752	 0.412074103463421
1753	 0.411947303469349
1754	 0.411825289863393
1755	 0.411696198245321
1756	 0.411564638231562
1757	 0.411464294262736
1758	 0.411324902622951
1759	 0.411118460626374
1760	 0.410979218030425
1761	 0.410879706430306
1762	 0.410708189849844
1763	 0.410516139248159
1764	 0.410349043560075
1765	 0.410235414524038
1766	 0.410162187092505
1767	 0.410138084607997
1768	 0.410083037199854
1769	 0.409928813991779
1770	 0.409776849234335
1771	 0.409640494035042
1772	 0.409453757935016
1773	 0.409289526273676
1774	 0.409218821239432
1775	 0.409133309870474
1776	 0.409007213842463
1777	 0.408903643268626
1778	 0.408742667128193
1779	 0.408548908015216
1780	 0.408513838052619
1781	 0.408450280563741
1782	 0.40842925264523
1783	 0.408367713776097
1784	 0.408260048207054
1785	 0.408174510653317
1786	 0.408056419326509
1787	 0.407986991386949
1788	 0.407951004974059
1789	 0.407929724475721
1790	 0.407962611416655
1791	 0.407969532938133
1792	 0.407990228830558
1793	 0.407914155533921
1794	 0.4078661627884
1795	 0.407845931729811
1796	 0.407810565419554
1797	 0.407810537548504
1798	 0.407740430710136
1799	 0.407614182802431
1800	 0.40754280492032
1801	 0.407509987985131
1802	 0.407477469276731
1803	 0.407510291054988
1804	 0.407560249687606
1805	 0.407549481968205
1806	 0.407574659621415
1807	 0.407572270698867
1808	 0.407509297202177
1809	 0.407494018220428
1810	 0.407451569208771
1811	 0.407370203415501
1812	 0.407398035747662
1813	 0.407460433160634
1814	 0.407498957954273
1815	 0.407570981084595
1816	 0.407577407351125
1817	 0.40755255094813
1818	 0.407490237064591
1819	 0.407437232472513
1820	 0.407366997734791
1821	 0.407298893311113
1822	 0.407309650469107
1823	 0.40734041458189
1824	 0.407319699566141
1825	 0.407340564288277
1826	 0.407297197516398
1827	 0.407146138784849
1828	 0.407128521798446
1829	 0.407123483889915
1830	 0.407050419161084
1831	 0.407129484093558
1832	 0.407034134849439
1833	 0.406976316778743
1834	 0.406994622946228
1835	 0.407131727886286
1836	 0.407161466390327
1837	 0.407174826673805
1838	 0.407199757467706
1839	 0.40721321063998
1840	 0.407164047829366
1841	 0.407111653792151
1842	 0.407148183671797
1843	 0.407128261850286
1844	 0.407070938500988
1845	 0.406998942141178
1846	 0.406920574199446
1847	 0.406839696069091
1848	 0.40676886591393
1849	 0.406601092920155
1850	 0.406453558109939
1851	 0.406368071898165
1852	 0.406158136852595
1853	 0.405913589304888
1854	 0.405656241465986
1855	 0.405322478827126
1856	 0.405030634343506
1857	 0.40480667871067
1858	 0.404469316530544
1859	 0.404115855890365
1860	 0.403718549150437
1861	 0.403160933658891
1862	 0.402538041762427
1863	 0.401919610086813
1864	 0.401281319510767
1865	 0.400540582671483
1866	 0.399763027137205
1867	 0.398857044760437
1868	 0.39785836472934
1869	 0.396726799136957
1870	 0.395514760568
1871	 0.394282935165248
1872	 0.392984100139203
1873	 0.39154102383367
1874	 0.390056477255737
1875	 0.388579126810083
1876	 0.386992903218047
1877	 0.385262509906136
1878	 0.383389135180819
1879	 0.38140953641083
1880	 0.379217824447735
1881	 0.37685983269815
1882	 0.374473299763497
1883	 0.37185751985668
1884	 0.369081314093657
1885	 0.366253077210054
1886	 0.363163642741847
1887	 0.35986271106994
1888	 0.356461610496319
1889	 0.352993175643224
1890	 0.349363023635684
1891	 0.345678691492309
1892	 0.3419106179839
1893	 0.338044664586891
1894	 0.334025186085301
1895	 0.329848305058927
1896	 0.325790126854824
1897	 0.321924818384629
1898	 0.318123388187867
1899	 0.314524258637904
1900	 0.311095757595745
1901	 0.307839206420225
1902	 0.304705738804296
1903	 0.301830119936036
1904	 0.299152291357992
1905	 0.296800526282805
1906	 0.294731965219981
1907	 0.292823623218186
1908	 0.291151802332777
1909	 0.289738976814235
1910	 0.288473632119063
1911	 0.287494534422065
1912	 0.286774495561877
1913	 0.286383880124997
1914	 0.286123117388004
1915	 0.28603693073038
1916	 0.286057631965452
1917	 0.286008138170847
1918	 0.286073215552268
1919	 0.286290619889492
1920	 0.286585896882934
1921	 0.287045346983805
1922	 0.287485739510341
1923	 0.287905836957686
1924	 0.288279818585869
1925	 0.288733272721157
1926	 0.289246079113938
1927	 0.289822734185258
1928	 0.290448278459506
1929	 0.290914218628212
1930	 0.291343641470058
1931	 0.291856227038408
1932	 0.292422435245988
1933	 0.293095907871253
1934	 0.293704317598424
1935	 0.294330136271287
1936	 0.294924134100322
1937	 0.295477632264787
1938	 0.296025074885717
1939	 0.296693767909608
1940	 0.297362661431825
1941	 0.297974605375226
1942	 0.298574462134803
1943	 0.299201280375286
1944	 0.299815268235041
1945	 0.300462771646566
1946	 0.301188915008434
1947	 0.301870062857406
1948	 0.302537848894066
1949	 0.303210998008252
1950	 0.303889919535735
1951	 0.304549251738219
1952	 0.305131123124426
1953	 0.305659466567503
1954	 0.306206596276523
1955	 0.306793174103327
1956	 0.307478384916131
1957	 0.308252475297339
1958	 0.308983602547033
1959	 0.309717200554392
1960	 0.310454691866853
1961	 0.311191494891869
1962	 0.311935128644078
1963	 0.312667969107507
1964	 0.313359885633575
1965	 0.314151777842516
1966	 0.314898072748499
1967	 0.315619603277202
1968	 0.316508181554882
1969	 0.317312421661012
1970	 0.318070899685343
1971	 0.318850861347079
1972	 0.31961168021847
1973	 0.320375100906753
1974	 0.321154702063789
1975	 0.321940965879168
1976	 0.322581427939093
1977	 0.323311883613665
1978	 0.324088263358953
1979	 0.324780151583206
1980	 0.325641329764158
1981	 0.32653429597114
1982	 0.327378787861885
1983	 0.328211984386478
1984	 0.329040753917857
1985	 0.329876508614835
1986	 0.330681187033678
1987	 0.331448187190898
1988	 0.332195653069524
1989	 0.333028629784532
1990	 0.333825242451025
1991	 0.334668327953208
1992	 0.335553504978422
1993	 0.33640867286779
1994	 0.337245996034578
1995	 0.338067493654229
1996	 0.338886576312439
1997	 0.339681066267632
1998	 0.340447848639951
1999	 0.341221996339592
2000	 0.341961303036846
2001	 0.342763596841324
2002	 0.34358267983352
2003	 0.344340008301779
2004	 0.345176187135906
2005	 0.345943901922819
2006	 0.346668559879326
2007	 0.347400103191102
2008	 0.348139360647982
2009	 0.348901775780527
2010	 0.349625765221798
2011	 0.350324646115931
2012	 0.351026963150011
2013	 0.351701395436751
2014	 0.352352667293436
2015	 0.353009200820297
2016	 0.353647802408752
2017	 0.354262005129887
2018	 0.354911537578956
2019	 0.355550104555624
2020	 0.356279470308644
2021	 0.35696256701943
2022	 0.357659389594222
2023	 0.358292088094857
2024	 0.35888628393204
2025	 0.359482599552843
2026	 0.360070425231208
2027	 0.360607780423637
2028	 0.361087258140657
2029	 0.361633496289834
2030	 0.362123258407183
2031	 0.362612427791683
2032	 0.363183794134246
2033	 0.363722329695609
2034	 0.364238313648793
2035	 0.364745513758552
2036	 0.365253662623323
2037	 0.365769533536466
2038	 0.366235933274826
2039	 0.366671741403848
2040	 0.367142274350353
2041	 0.367584789592088
2042	 0.368037188422141
2043	 0.368572070024472
2044	 0.36897931467287
2045	 0.369330927959915
2046	 0.369706934440904
2047	 0.370079206310513
2048	 0.370525432929542
2049	 0.371019172847278
2050	 0.371413577466993
2051	 0.371769998891231
2052	 0.372022141626119
2053	 0.372364191606065
2054	 0.372685413261814
2055	 0.37306859858249
2056	 0.373581512352872
2057	 0.37396758942097
2058	 0.374305762975767
2059	 0.374620836709799
2060	 0.374990511966053
2061	 0.375291081493925
2062	 0.375582030632481
2063	 0.375990795026918
2064	 0.376291659983568
2065	 0.376631801774692
2066	 0.377011513927598
2067	 0.37743325560419
2068	 0.377859316323146
2069	 0.378331341781232
2070	 0.378767441111651
2071	 0.379302763473832
2072	 0.379687701446534
2073	 0.379880572230975
2074	 0.380214223519598
2075	 0.380581983868938
2076	 0.380871079016707
2077	 0.381221142165628
2078	 0.381668793595071
2079	 0.38194124130219
2080	 0.382150764945549
2081	 0.382426341714395
2082	 0.382706747180951
2083	 0.383002438707823
2084	 0.383359730115916
2085	 0.383633841651277
2086	 0.383864336142598
2087	 0.384118954869884
2088	 0.384304734543773
2089	 0.384564971335988
2090	 0.384895405888275
2091	 0.385191857039309
2092	 0.385494444916989
2093	 0.385821471444612
2094	 0.386107773046511
2095	 0.386386783728216
2096	 0.386623244929411
2097	 0.386906511065391
2098	 0.38722164115725
2099	 0.387606812402547
2100	 0.38786925351382
2101	 0.388103149898039
2102	 0.388350074012533
2103	 0.388484486712419
2104	 0.388726533447282
2105	 0.389079020404091
2106	 0.389373804599677
2107	 0.389629677780392
2108	 0.38992830039385
2109	 0.39024205646107
2110	 0.390590965767083
2111	 0.390872621108282
2112	 0.391194117222657
2113	 0.391453961858529
2114	 0.391729340211729
2115	 0.392022834507
2116	 0.392358333198315
2117	 0.392652175688369
2118	 0.392932127158144
2119	 0.393193546870714
2120	 0.393431790419988
2121	 0.393691466156034
2122	 0.393935253647933
2123	 0.394209838240942
2124	 0.394572990185079
2125	 0.39481434669042
2126	 0.395010226521712
2127	 0.395193083937009
2128	 0.395251614543086
2129	 0.395341316133397
2130	 0.395540531496947
2131	 0.395710074135718
2132	 0.395849470132478
2133	 0.396043694638309
2134	 0.396107116380974
2135	 0.396101533104216
2136	 0.396045380781528
2137	 0.395864520916512
2138	 0.395751646801759
2139	 0.395649765181214
2140	 0.395482309343142
2141	 0.395264198229658
2142	 0.395122963389675
2143	 0.394982168337665
2144	 0.394800045804789
2145	 0.394691745233465
2146	 0.394533231686042
2147	 0.39437970300818
2148	 0.394038539034132
2149	 0.393706495956132
2150	 0.393334712688962
2151	 0.392827473506952
2152	 0.392446655710884
2153	 0.392069698143287
2154	 0.391757966420201
2155	 0.391393840062479
2156	 0.391003234482122
2157	 0.39065397407388
2158	 0.390315248945544
2159	 0.389971442998064
2160	 0.389688335358682
2161	 0.389357353064021
2162	 0.38897861508058
2163	 0.388622121036777
2164	 0.388266422409817
2165	 0.387879457714983
2166	 0.387481552823497
2167	 0.387070941695877
2168	 0.386584176381676
2169	 0.386231812426455
2170	 0.385783720719448
2171	 0.385422212886566
2172	 0.385021793818936
2173	 0.384521418166915
2174	 0.384072821438832
2175	 0.383552915606964
2176	 0.38318275508759
2177	 0.382922757055104
2178	 0.382583184094289
2179	 0.382320914880904
2180	 0.381983046524865
2181	 0.38156897279733
2182	 0.381159295003886
2183	 0.380736622081734
2184	 0.380317955079396
2185	 0.37988563421383
2186	 0.379435848406558
2187	 0.379005813228448
2188	 0.378526717015307
2189	 0.378063325685207
2190	 0.377428572111393
2191	 0.376817109425224
2192	 0.376273650078433
2193	 0.375597180537704
2194	 0.374974259284417
2195	 0.374401329233509
2196	 0.373720188271632
2197	 0.373117634093989
2198	 0.372589450974868
2199	 0.372004572469016
2200	 0.371437324394094
2201	 0.370743660713189
2202	 0.369973715418289
2203	 0.369215050207514
2204	 0.368254683980666
2205	 0.367615753284559
2206	 0.367077968939426
2207	 0.366649687398695
2208	 0.366370119287291
2209	 0.366238103738986
2210	 0.36625959688441
2211	 0.366346641880829
2212	 0.36657194161308
2213	 0.36691095456046
2214	 0.367407573010834
2215	 0.367848105386133
2216	 0.368438695445396
2217	 0.368998513590976
2218	 0.369282541761045
2219	 0.369567063899978
2220	 0.369722693290138
2221	 0.369788142113009
2222	 0.369935397982358
2223	 0.370019058698474
2224	 0.370162399480087
2225	 0.370412639569537
2226	 0.370452858674285
2227	 0.370433092274769
2228	 0.370361811480609
2229	 0.370122996113031
2230	 0.369958339528423
2231	 0.369796328464168
2232	 0.369668852241328
2233	 0.369495957350455
2234	 0.369409418751725
2235	 0.369413150559491
2236	 0.36933548949324
2237	 0.369338661825976
2238	 0.369226443799205
2239	 0.369055995838714
2240	 0.368839458359915
2241	 0.368348568754548
2242	 0.368152253382032
2243	 0.368098016237419
2244	 0.368012127768313
2245	 0.368063659350412
2246	 0.368229709496989
2247	 0.368175474072495
2248	 0.367971425431139
2249	 0.367767251331126
2250	 0.367584476235663
2251	 0.367495530365213
2252	 0.367581688182423
2253	 0.367638265813616
2254	 0.367612325357485
2255	 0.367614706287174
2256	 0.367645581394467
2257	 0.36760124114325
2258	 0.367578708783598
2259	 0.367553371072438
2260	 0.367428372811749
2261	 0.367313083073389
2262	 0.367287359467345
2263	 0.367183402720572
2264	 0.366916796328389
2265	 0.36688787536112
2266	 0.367032037389671
2267	 0.367004444407886
2268	 0.367002902533921
2269	 0.366941005427586
2270	 0.366833276293017
2271	 0.366557316393801
2272	 0.366201679908234
2273	 0.365872654570218
2274	 0.365317091443655
2275	 0.364917750264558
2276	 0.364747688625962
2277	 0.364349170643889
2278	 0.363759290571754
2279	 0.363280638485081
2280	 0.362788154539998
2281	 0.362274441141356
2282	 0.361742818104246
2283	 0.361400172448413
2284	 0.360954549793299
2285	 0.360361638941678
2286	 0.359907490555748
2287	 0.359305707540499
2288	 0.358629310991428
2289	 0.358196824692144
2290	 0.357853915535293
2291	 0.357547923612189
2292	 0.357196167904667
2293	 0.356915513701701
2294	 0.356579650070008
2295	 0.356283166799314
2296	 0.356112374573777
2297	 0.355808467371834
2298	 0.355446136315033
2299	 0.355062483720836
2300	 0.354745085156292
2301	 0.354483041878423
2302	 0.354171412605958
2303	 0.353951161078822
2304	 0.353538911309833
2305	 0.352995716284
2306	 0.352412916238168
2307	 0.351664657763611
2308	 0.351132936618638
2309	 0.350600962661572
2310	 0.350189253885702
2311	 0.349972948916147
2312	 0.349643071393814
2313	 0.349231554228692
2314	 0.349080925270859
2315	 0.349045441730141
2316	 0.34900430965602
2317	 0.3490722165627
2318	 0.349253188611404
2319	 0.34951256008358
2320	 0.349773934517269
2321	 0.350223125332437
2322	 0.350548943264411
2323	 0.350782914331967
2324	 0.350984542890415
2325	 0.351159327132922
2326	 0.351387242015578
2327	 0.351779561415995
2328	 0.351803462852549
2329	 0.351579088081668
2330	 0.351503596696727
2331	 0.351144814469955
2332	 0.350977407615665
2333	 0.351150593878376
2334	 0.351075297047773
2335	 0.350792598611173
2336	 0.350616463436155
2337	 0.350445482463663
2338	 0.350272313305687
2339	 0.35029608611761
2340	 0.350043976231418
2341	 0.349592270193187
2342	 0.349150636322499
2343	 0.348581151902589
2344	 0.348093076971266
2345	 0.347824554331163
2346	 0.347640383901739
2347	 0.347505930018648
2348	 0.347318493061381
2349	 0.346956008908474
2350	 0.346438536041982
2351	 0.345976136699579
2352	 0.345451323782753
2353	 0.344909260966353
2354	 0.344569956076592
2355	 0.344185737413893
2356	 0.343834602683229
2357	 0.3437309291426
2358	 0.343580173036851
2359	 0.343324580413291
2360	 0.343017463280677
2361	 0.342383811663692
2362	 0.341780469283938
2363	 0.34130061228193
2364	 0.340737115401285
2365	 0.340395287896283
2366	 0.340033760458852
2367	 0.339603056176924
2368	 0.338955996183983
2369	 0.338102065142047
2370	 0.337369800710495
2371	 0.336590584806245
2372	 0.336093842923278
2373	 0.335738354656107
2374	 0.335289055101197
2375	 0.334887140678308
2376	 0.334358137272932
2377	 0.333665541625685
2378	 0.333169922992575
2379	 0.332841732787765
2380	 0.332291609825879
2381	 0.332018017588217
2382	 0.331632310349855
2383	 0.330923086995109
2384	 0.330655175905146
2385	 0.330561003535215
2386	 0.33021806756439
2387	 0.329930064389417
2388	 0.329683192545003
2389	 0.328942619564501
2390	 0.328238642996046
2391	 0.327580947879261
2392	 0.3267663759264
2393	 0.326322455405977
2394	 0.32592493153603
2395	 0.32573591109956
2396	 0.325564935701937
2397	 0.325289117989286
2398	 0.32543616125618
2399	 0.325367755608355
2400	 0.325172629258109
2401	 0.325109671199683
2402	 0.32448949071449
2403	 0.323583708266113
2404	 0.32289856606668
2405	 0.322046073957327
2406	 0.321414199296319
2407	 0.321312905636368
2408	 0.321006521675254
2409	 0.320946684904104
2410	 0.320945951377816
2411	 0.320064548868891
2412	 0.319473056482642
2413	 0.31865414930296
2414	 0.317427022069105
2415	 0.31735158192996
2416	 0.31694341142395
2417	 0.316230189035579
2418	 0.315927826064665
2419	 0.315096845535731
2420	 0.314122269948831
2421	 0.313319405959898
2422	 0.312573768126177
2423	 0.31232511874162
2424	 0.311597651613381
2425	 0.310800878299969
2426	 0.310045670046442
2427	 0.308593294038524
2428	 0.307934046930142
2429	 0.308143677214657
2430	 0.307739602985546
2431	 0.307324624756257
2432	 0.306814377063166
2433	 0.306080948914215
2434	 0.305320277125422
2435	 0.304454956918453
2436	 0.303486236162521
2437	 0.302248777709272
2438	 0.301465524866589
2439	 0.301059625765457
2440	 0.30091511443043
2441	 0.300271890876799
2442	 0.299714690448868
2443	 0.299615460009013
2444	 0.29933730140318
2445	 0.299480247206444
2446	 0.299230972226427
2447	 0.297612391031282
2448	 0.296523911788473
2449	 0.295379891206508
2450	 0.2942145034211
2451	 0.294325736405848
2452	 0.294092903343947
2453	 0.293439423203963
2454	 0.292753331073877
2455	 0.291590806253811
2456	 0.290812811944687
2457	 0.290173650010002
2458	 0.289722724767135
2459	 0.28907374578445
2460	 0.28730044385685
2461	 0.286034547620992
2462	 0.28516889089828
2463	 0.284721512780298
2464	 0.28511265366443
2465	 0.285107288223828
2466	 0.284436737119837
2467	 0.283062433741904
2468	 0.282396277218857
2469	 0.282198838903946
2470	 0.280987715712479
2471	 0.280954351376002
2472	 0.280189061800052
2473	 0.278462917134729
2474	 0.27955568258028
2475	 0.279808767065652
2476	 0.279485044013651
2477	 0.279842570053111
2478	 0.277740066502489
2479	 0.27751461153717
2480	 0.277705031341883
2481	 0.277551824170009
2482	 0.27664235529372
2483	 0.275888829138223
2484	 0.274277015576531
2485	 0.272755277950776
2486	 0.27292929108844
2487	 0.273236973986308
2488	 0.274151001238864
2489	 0.274392368242186
2490	 0.272259664999775
2491	 0.27014131253422
2492	 0.268854454640804
2493	 0.268266745982501
2494	 0.269029294272605
2495	 0.270157503827139
2496	 0.269890181655798
2497	 0.269245231590281
2498	 0.269369438782835
2499	 0.269400028440228
2500	 0.269649795382868
