Wavelength	signature0008.asd
350	 5.34128917114678E-02
351	 5.72988037143926E-02
352	 4.83831648535578E-02
353	 4.53805974378339E-02
354	 6.60875743450425E-02
355	 5.48734361679166E-02
356	 4.95705324596016E-02
357	 5.58598510144005E-02
358	 5.27521555309655E-02
359	 4.66602671046307E-02
360	 4.43539105273319E-02
361	 4.63614320827652E-02
362	 4.54122918795528E-02
363	 4.71603437612821E-02
364	 0.047981986931949
365	 4.58074733084391E-02
366	 4.65414170426265E-02
367	 4.82589902085048E-02
368	 4.72362099173617E-02
369	 4.18639012743564E-02
370	 4.22714028819337E-02
371	 4.12959033373175E-02
372	 4.00951862673082E-02
373	 0.043976916509059
374	 4.39214679729061E-02
375	 4.47612164969086E-02
376	 4.71230328347227E-02
377	 4.55465626675773E-02
378	 4.29405193360999E-02
379	 4.46488984107296E-02
380	 4.99597518957045E-02
381	 4.45851313136933E-02
382	 4.28195910923835E-02
383	 4.48046158266308E-02
384	 4.60307441099903E-02
385	 4.20405049642103E-02
386	 0.042110428141281
387	 4.54079876827233E-02
388	 4.55809335597324E-02
389	 4.41048521184902E-02
390	 4.31225864218136E-02
391	 0.043315734210311
392	 4.36549083460496E-02
393	 4.25725095005875E-02
394	 4.24451589432742E-02
395	 4.37969841043716E-02
396	 4.15347722318417E-02
397	 4.06499262767061E-02
398	 4.15084905374319E-02
399	 4.28492432563437E-02
400	 4.36933955210028E-02
401	 4.30138966770904E-02
402	 4.20027498531885E-02
403	 4.27293221980092E-02
404	 4.25725821653667E-02
405	 4.13046610133883E-02
406	 0.040215336329007
407	 4.19472885712861E-02
408	 4.32768175897672E-02
409	 4.33010407246488E-02
410	 4.25170412022684E-02
411	 4.35418425428173E-02
412	 4.32804394336188E-02
413	 4.22257448758288E-02
414	 0.041970386068227
415	 4.17504605214672E-02
416	 4.19226595698006E-02
417	 0.042467729842337
418	 4.29519005124994E-02
419	 4.20540962374881E-02
420	 4.10672974230213E-02
421	 4.10607470411838E-02
422	 4.21436429916439E-02
423	 4.19821318049847E-02
424	 4.13992317898701E-02
425	 0.041686967731042
426	 4.22920727698862E-02
427	 4.22225426632038E-02
428	 0.041646484103994
429	 4.14635512324464E-02
430	 4.22561335531555E-02
431	 4.26252117912582E-02
432	 4.22339703905607E-02
433	 4.23758398732661E-02
434	 4.26134391914073E-02
435	 4.29267781069799E-02
436	 4.32325516945159E-02
437	 4.29735040032078E-02
438	 4.32018833175787E-02
439	 4.35180515381582E-02
440	 4.30693024895619E-02
441	 4.29128920912642E-02
442	 4.33628717819655E-02
443	 4.38623955278096E-02
444	 4.31091809011131E-02
445	 4.32304440877254E-02
446	 4.34465122938719E-02
447	 0.043186713057474
448	 4.39122998418923E-02
449	 4.42995917742045E-02
450	 4.41063687424677E-02
451	 4.37090599043743E-02
452	 4.42243832723926E-02
453	 4.48116642274041E-02
454	 4.50296825138605E-02
455	 4.49569528807714E-02
456	 4.48451947410017E-02
457	 4.49649006496298E-02
458	 4.53041219313396E-02
459	 4.52969523854225E-02
460	 4.50623318718678E-02
461	 0.044932541076274
462	 4.51952225999418E-02
463	 4.55080199809737E-02
464	 4.56659385673924E-02
465	 4.56629531966887E-02
466	 4.56461966756443E-02
467	 4.54012244106417E-02
468	 4.56375989957702E-02
469	 4.62979603274668E-02
470	 4.55481547224731E-02
471	 4.55456964840534E-02
472	 4.59942001156276E-02
473	 0.0460413175865
474	 4.62081454107714E-02
475	 4.63392802475098E-02
476	 4.64190560151733E-02
477	 4.65268343874513E-02
478	 4.63031495467499E-02
479	 4.62431515773017E-02
480	 4.65929294608761E-02
481	 4.69792269281446E-02
482	 4.68617327919933E-02
483	 0.04660534249714
484	 4.67276449762281E-02
485	 4.70340439033176E-02
486	 4.70249211977113E-02
487	 4.68890972913347E-02
488	 4.72579497346724E-02
489	 0.04740681804604
490	 4.75412994533886E-02
491	 4.77585798127225E-02
492	 4.76899442422899E-02
493	 0.048021526364211
494	 4.83727777264393E-02
495	 4.83219021864965E-02
496	 4.88567367584241E-02
497	 4.89977121853476E-02
498	 4.87976209210053E-02
499	 4.90888402666923E-02
500	 4.93516675271954E-02
501	 4.95392015384128E-02
502	 4.97293440070528E-02
503	 5.01229338505756E-02
504	 5.03444661200783E-02
505	 5.05268865843906E-02
506	 0.050845723251411
507	 5.08165135490451E-02
508	 5.10086148093318E-02
509	 0.051433318831839
510	 5.16343237392119E-02
511	 5.18230122869689E-02
512	 5.20944642560934E-02
513	 5.24405889427923E-02
514	 5.26719587400466E-02
515	 5.29820911043362E-02
516	 5.31667798719968E-02
517	 5.30857317457663E-02
518	 5.36747878392425E-02
519	 5.39760550090039E-02
520	 5.39809909126282E-02
521	 5.45860772199985E-02
522	 5.49738273503344E-02
523	 5.51242951346385E-02
524	 5.52199375365987E-02
525	 0.055566700092849
526	 5.58816933570385E-02
527	 5.62272343022628E-02
528	 5.67377227534367E-02
529	 5.71338036726306E-02
530	 5.74316183018404E-02
531	 5.77194344317774E-02
532	 5.81331675375441E-02
533	 5.87310419479168E-02
534	 5.92339603696174E-02
535	 5.95000445718421E-02
536	 5.99137148074783E-02
537	 6.04753483191015E-02
538	 6.10674025937982E-02
539	 6.15569073503864E-02
540	 6.22247628760659E-02
541	 6.26700556427793E-02
542	 6.29491891705649E-02
543	 6.37432743440191E-02
544	 6.43625722543182E-02
545	 6.49621208140521E-02
546	 6.57448897987626E-02
547	 6.63987027996231E-02
548	 6.70504505432147E-02
549	 6.77801189428633E-02
550	 6.86211645986081E-02
551	 6.94784650132992E-02
552	 7.03069535941102E-02
553	 7.11213009172067E-02
554	 7.20209013533959E-02
555	 7.28196790239403E-02
556	 7.37214486376628E-02
557	 7.48771575010052E-02
558	 7.57204595620835E-02
559	 7.67668612093192E-02
560	 7.79885198493594E-02
561	 7.89660891652063E-02
562	 8.00985340576726E-02
563	 8.12994185815061E-02
564	 8.24784288401374E-02
565	 8.36859897110442E-02
566	 0.084845464600368
567	 8.60296585173155E-02
568	 8.73134462024584E-02
569	 8.84941630463307E-02
570	 8.96262464144485E-02
571	 9.07799878697715E-02
572	 9.20272528589058E-02
573	 9.34023780923549E-02
574	 9.47904389065153E-02
575	 9.61183005394624E-02
576	 0.097460538603183
577	 9.89502816509215E-02
578	 0.100427704784801
579	 0.10166316557542
580	 0.102936970055486
581	 0.104319976675536
582	 0.105771572342459
583	 0.107136948830237
584	 0.108476135776539
585	 0.109807471085934
586	 0.111134681042332
587	 0.11245038249785
588	 0.113728512810695
589	 0.114969373512699
590	 0.116180619034844
591	 0.117363497277794
592	 0.118489800288163
593	 0.119582174061028
594	 0.120730841656847
595	 0.121909164111666
596	 0.123024219043012
597	 0.124011238479263
598	 0.125013728224008
599	 0.126027007403559
600	 0.127033458804275
601	 0.127995482133856
602	 0.128841584244122
603	 0.129684121259661
604	 0.130566640547056
605	 0.131348152088995
606	 0.132069301539664
607	 0.132814685702955
608	 0.133629949878206
609	 0.134303789693817
610	 0.134965135115652
611	 0.135651826847095
612	 0.136301273659214
613	 0.136900619363926
614	 0.137466121459539
615	 0.138019311454085
616	 0.13857177949482
617	 0.139097796856286
618	 0.139625708430043
619	 0.140192276444026
620	 0.14073851884553
621	 0.141154309336699
622	 0.141484722742386
623	 0.141943287572659
624	 0.142505018663129
625	 0.143001228741682
626	 0.143340776422804
627	 0.143739861911396
628	 0.1441793845135
629	 0.144574569967023
630	 0.144845234680486
631	 0.1452338549133
632	 0.145710674471985
633	 0.146144654679502
634	 0.146311562090787
635	 0.146633596469295
636	 0.147027824664967
637	 0.147359749431366
638	 0.147809851266233
639	 0.148191584051419
640	 0.14851902019572
641	 0.148917562977015
642	 0.149260633499668
643	 0.149629062289013
644	 0.150031943241922
645	 0.150325482016495
646	 0.150595694015092
647	 0.1509163670801
648	 0.151319727584832
649	 0.151686864658374
650	 0.152098869158331
651	 0.152541775183696
652	 0.152930698584359
653	 0.15325800334997
654	 0.153581932991721
655	 0.153960969051333
656	 0.154452112172884
657	 0.154734649162458
658	 0.154974095717179
659	 0.155414711417191
660	 0.155813762977941
661	 0.156267192256531
662	 0.156712524055752
663	 0.156972457554933
664	 0.157405771182741
665	 0.157930794136283
666	 0.158406878372244
667	 0.158723374629954
668	 0.159099333932761
669	 0.159555218723176
670	 0.16002572538487
671	 0.160442625265048
672	 0.16081357559869
673	 0.161199322345186
674	 0.16169089943132
675	 0.162041563740532
676	 0.162449071105575
677	 0.162997947463236
678	 0.163291874965279
679	 0.163695398077399
680	 0.164198589339866
681	 0.164660827599839
682	 0.165125171284046
683	 0.16555607495517
684	 0.165967286201882
685	 0.166424036075148
686	 0.166931617829558
687	 0.167403813023724
688	 0.167792066086728
689	 0.168163126161059
690	 0.168691587016274
691	 0.169260799534463
692	 0.169684237863684
693	 0.170200478215998
694	 0.170709311592775
695	 0.17114036585816
696	 0.171489830253175
697	 0.172019298532299
698	 0.172542316163643
699	 0.172934632295564
700	 0.173477966904081
701	 0.173913563894593
702	 0.174312734853092
703	 0.174835326548397
704	 0.175276624486369
705	 0.175715774470021
706	 0.176179513270226
707	 0.176621025283831
708	 0.177046760504357
709	 0.177414478289295
710	 0.177744052602028
711	 0.178229640357158
712	 0.178688980128713
713	 0.179127254654874
714	 0.179600596822468
715	 0.180003588829006
716	 0.180396523482351
717	 0.180829357109259
718	 0.181323394493488
719	 0.181750074404407
720	 0.182129825689051
721	 0.182514007713092
722	 0.182964170685458
723	 0.183329086688775
724	 0.183653436892038
725	 0.184036745738605
726	 0.184457436293333
727	 0.18479698563451
728	 0.185091404559967
729	 0.185497113417257
730	 0.185814841800604
731	 0.186102895564778
732	 0.186416436557999
733	 0.186723835055689
734	 0.187002020304056
735	 0.187265184086896
736	 0.187531983284138
737	 0.187775514090857
738	 0.187999496267243
739	 0.188248737643221
740	 0.188574571541925
741	 0.188787270282734
742	 0.189022988288972
743	 0.189323998255848
744	 0.189517254309433
745	 0.189661216873666
746	 0.189835106758748
747	 0.190074129337536
748	 0.190240835792435
749	 0.190397788880451
750	 0.190574364786357
751	 0.190761152999648
752	 0.190815168493377
753	 0.190898708257085
754	 0.191065667566107
755	 0.191203285139328
756	 0.1913270262919
757	 0.191448977388064
758	 0.191553493215057
759	 0.191536103057964
760	 0.191596572805667
761	 0.191694509753592
762	 0.191715599428492
763	 0.191732827051381
764	 0.191770733990057
765	 0.191792924812654
766	 0.191727656448376
767	 0.191735371030884
768	 0.191749928663471
769	 0.191724839392104
770	 0.191713488831889
771	 0.191679595150103
772	 0.191670376231269
773	 0.19171245800516
774	 0.191675668752258
775	 0.19164591363133
776	 0.191616285987414
777	 0.191539072618531
778	 0.191489155787218
779	 0.191450400548205
780	 0.191408585024202
781	 0.191361233638214
782	 0.191285342130196
783	 0.191185555252673
784	 0.191082538439274
785	 0.191018513553302
786	 0.190950594471364
787	 0.190850991822884
788	 0.190725652180227
789	 0.190696274729621
790	 0.190657673662752
791	 0.190542076769273
792	 0.190340047739689
793	 0.190222452732553
794	 0.190183770606561
795	 0.190132810361152
796	 0.189913678536427
797	 0.189816738611049
798	 0.189693369790094
799	 0.189460307584063
800	 0.189447077420557
801	 0.18924474600065
802	 0.188975544833404
803	 0.188870157721661
804	 0.188720857482425
805	 0.188627324676841
806	 0.188546116063462
807	 0.188352155201695
808	 0.188111087069213
809	 0.187963949412646
810	 0.187897160684757
811	 0.187715174705806
812	 0.187608584731023
813	 0.187509257927153
814	 0.18736106944397
815	 0.187247932134986
816	 0.187084814114246
817	 0.186916043238325
818	 0.186787944802105
819	 0.186572889938005
820	 0.186519018247146
821	 0.186520890855193
822	 0.186325429249224
823	 0.186129737701408
824	 0.186001786732923
825	 0.18592769809542
826	 0.185823751826492
827	 0.185660045334374
828	 0.185533434011687
829	 0.185463617300949
830	 0.185318060167981
831	 0.185164269131323
832	 0.18504342388419
833	 0.184952017719486
834	 0.184781599417504
835	 0.184622641926525
836	 0.184509068524526
837	 0.184434008012873
838	 0.184321605848295
839	 0.184194252594682
840	 0.184082169463296
841	 0.184004463118711
842	 0.183882785082029
843	 0.183787369193225
844	 0.183720351435296
845	 0.183610579487624
846	 0.183521923310043
847	 0.183443829454581
848	 0.183364588444652
849	 0.1832889025196
850	 0.183254793228581
851	 0.183182514111346
852	 0.183047104827001
853	 0.183019567186873
854	 0.183019969659409
855	 0.18299439359087
856	 0.182921125162794
857	 0.182865081558069
858	 0.182819058477609
859	 0.182797896522277
860	 0.182801616770415
861	 0.182685337223357
862	 0.18271729150089
863	 0.182807179499771
864	 0.182652683504434
865	 0.182667074896985
866	 0.182692165856378
867	 0.182664214127813
868	 0.182679375092283
869	 0.18265073377398
870	 0.182565083148156
871	 0.182530566149142
872	 0.18279383414695
873	 0.182730110490501
874	 0.182644331782612
875	 0.18278736188268
876	 0.182822137319535
877	 0.182832675206508
878	 0.182848942601464
879	 0.182895152423972
880	 0.183024108864108
881	 0.182997512622715
882	 0.182953668101333
883	 0.183078306213768
884	 0.183099253182598
885	 0.183136754944693
886	 0.183211614621654
887	 0.18329975582283
888	 0.183473926516754
889	 0.183518651555652
890	 0.183492310950752
891	 0.183609742181588
892	 0.183681005992714
893	 0.183747291610272
894	 0.183833114244479
895	 0.183929542418968
896	 0.184011572861921
897	 0.184222423747906
898	 0.18447034919994
899	 0.184430587230257
900	 0.184475833232381
901	 0.184667355940063
902	 0.184920692261651
903	 0.185046976015463
904	 0.185320165167089
905	 0.185473268227494
906	 0.185452769803952
907	 0.185715636316076
908	 0.185957995884835
909	 0.186103669810155
910	 0.186208353680138
911	 0.186474227608525
912	 0.186762992219024
913	 0.18687565871604
914	 0.186843389386014
915	 0.187272145727941
916	 0.187405449198008
917	 0.187519073924147
918	 0.187922036752525
919	 0.188110681575211
920	 0.188275193974563
921	 0.188422206130976
922	 0.188571669299637
923	 0.188974347867781
924	 0.189204255802312
925	 0.189291309610087
926	 0.189427053138974
927	 0.189690913452081
928	 0.189940494175715
929	 0.190168292827995
930	 0.190436416973544
931	 0.190840448435444
932	 0.191114048407241
933	 0.191290481057165
934	 0.191536087050066
935	 0.191954195516683
936	 0.192212636788225
937	 0.192356771801444
938	 0.192560944648644
939	 0.192696125492594
940	 0.192859632237983
941	 0.193116803221464
942	 0.193492278044659
943	 0.193983777257862
944	 0.194107843820709
945	 0.194143632664246
946	 0.194577258477592
947	 0.19508908611964
948	 0.195401058593899
949	 0.195591373150387
950	 0.195880162111884
951	 0.196251735666913
952	 0.196654896900339
953	 0.196994492029526
954	 0.197186035278624
955	 0.197207801292238
956	 0.197582637040067
957	 0.198172015856691
958	 0.198609478426489
959	 0.198920624757309
960	 0.199239109877778
961	 0.199617548678872
962	 0.200051093005896
963	 0.200518484662799
964	 0.200727820437513
965	 0.200917573998962
966	 0.201330264102964
967	 0.201543315234855
968	 0.202028539291019
969	 0.20249307144327
970	 0.202701545418657
971	 0.203275131313924
972	 0.203513293343033
973	 0.203714896571226
974	 0.204249213323406
975	 0.204940762286873
976	 0.205113151888358
977	 0.205242754069778
978	 0.205725463052819
979	 0.206175315011952
980	 0.206620769863306
981	 0.207097061273837
982	 0.207507679854381
983	 0.207597714280502
984	 0.208010407814206
985	 0.208587071000345
986	 0.209104178534925
987	 0.209485300903914
988	 0.209791119180791
989	 0.210014679052771
990	 0.210292384000301
991	 0.210795505155571
992	 0.210762470018538
993	 0.211194668497492
994	 0.211944259524043
995	 0.212095259839049
996	 0.2127157753741
997	 0.213243846169403
998	 0.213772471448915
999	 0.214555719298707
1000	 0.214461429633119
1001	 0.206961460490728
1002	 0.20733317326464
1003	 0.207800023505842
1004	 0.2080965911267
1005	 0.208169120144901
1006	 0.208574680940528
1007	 0.208960776891382
1008	 0.209276746047133
1009	 0.20963558329019
1010	 0.210125393003681
1011	 0.210443445068772
1012	 0.210813414422489
1013	 0.211187611571724
1014	 0.211576354024759
1015	 0.212036034265783
1016	 0.21227217172222
1017	 0.212429779948473
1018	 0.21268184740439
1019	 0.212974368001318
1020	 0.213377722863305
1021	 0.213852571421506
1022	 0.214248819795865
1023	 0.214670304785202
1024	 0.215042603738503
1025	 0.215376906241153
1026	 0.215644890304872
1027	 0.216000571727981
1028	 0.216191228243821
1029	 0.216372387348737
1030	 0.216753742464072
1031	 0.217081583470244
1032	 0.217508638597549
1033	 0.217948133281274
1034	 0.218204607201316
1035	 0.218494408790076
1036	 0.218879497284443
1037	 0.219266569518103
1038	 0.219616216889541
1039	 0.220028054772586
1040	 0.220368133030635
1041	 0.220575175432216
1042	 0.220800538873965
1043	 0.221139390568597
1044	 0.221572346937303
1045	 0.221979968971756
1046	 0.222432196875532
1047	 0.222802404724698
1048	 0.223073745237839
1049	 0.223488522663686
1050	 0.22383149299757
1051	 0.224195619264057
1052	 0.224567231428599
1053	 0.224897979524861
1054	 0.225150820748742
1055	 0.225521722454794
1056	 0.225801861307185
1057	 0.226135550940302
1058	 0.226700644054604
1059	 0.227097714150395
1060	 0.227431951573351
1061	 0.227885243392536
1062	 0.228172935967316
1063	 0.228413167426347
1064	 0.22878503963802
1065	 0.229132413206549
1066	 0.229549914400569
1067	 0.230037076359369
1068	 0.230486089571867
1069	 0.231027944000132
1070	 0.231460360756232
1071	 0.231792449919683
1072	 0.232168061077053
1073	 0.232589904640167
1074	 0.232929092825838
1075	 0.233295073910383
1076	 0.233615856881564
1077	 0.233953934913825
1078	 0.234356053264764
1079	 0.234740531386777
1080	 0.235171733016902
1081	 0.235582173074287
1082	 0.23594868221458
1083	 0.236316239577682
1084	 0.236699968401312
1085	 0.237057677776634
1086	 0.237364464663078
1087	 0.237714654828382
1088	 0.238091974849804
1089	 0.238473328817187
1090	 0.238780772854176
1091	 0.239084776744705
1092	 0.239433649744849
1093	 0.239809924384995
1094	 0.240257140945996
1095	 0.240722407283957
1096	 0.241137749688658
1097	 0.241473660277475
1098	 0.241812334642698
1099	 0.242070922959458
1100	 0.242438149234986
1101	 0.242887982019724
1102	 0.243261459551046
1103	 0.24366213572063
1104	 0.244005727917426
1105	 0.244282325558196
1106	 0.244566195830405
1107	 0.244867495045385
1108	 0.24522195065037
1109	 0.245617805268394
1110	 0.246000166994509
1111	 0.246433986899044
1112	 0.246864446692633
1113	 0.24724617925676
1114	 0.247594539209786
1115	 0.247958212764437
1116	 0.248288270744017
1117	 0.248641899899621
1118	 0.24900433495392
1119	 0.249387350587262
1120	 0.249779900880812
1121	 0.250179682369275
1122	 0.250597996887875
1123	 0.250970909156449
1124	 0.251285133108074
1125	 0.251617000279761
1126	 0.251963119911946
1127	 0.252312833982103
1128	 0.252681742325869
1129	 0.253064497067509
1130	 0.253448873786643
1131	 0.253830086035379
1132	 0.254222203929371
1133	 0.254642021504049
1134	 0.255047982166656
1135	 0.255478434960339
1136	 0.255843841788382
1137	 0.256124500474506
1138	 0.256478974842623
1139	 0.256823281346668
1140	 0.257217585794826
1141	 0.257619160871992
1142	 0.258017788192212
1143	 0.258384487087821
1144	 0.25871069585854
1145	 0.259008570993924
1146	 0.259291596381438
1147	 0.259580207607029
1148	 0.259795113785415
1149	 0.26008434067536
1150	 0.260441406825165
1151	 0.260766251398906
1152	 0.261063260413446
1153	 0.261412636823632
1154	 0.261817641807562
1155	 0.26215957301802
1156	 0.262479791755502
1157	 0.262854002317661
1158	 0.263164288306787
1159	 0.26346684873268
1160	 0.263806748605429
1161	 0.264147803696601
1162	 0.264494921767527
1163	 0.26482374077533
1164	 0.265199540995524
1165	 0.2656190637441
1166	 0.266010217302984
1167	 0.26643368248555
1168	 0.266800900226315
1169	 0.267108386346814
1170	 0.267460180621272
1171	 0.267811938901713
1172	 0.268165515255071
1173	 0.268532175356824
1174	 0.268911534457111
1175	 0.269295595316386
1176	 0.269667563914547
1177	 0.270079602228588
1178	 0.270494174210578
1179	 0.270863401427126
1180	 0.27124563269385
1181	 0.271595395921022
1182	 0.271906755544964
1183	 0.272239148788226
1184	 0.272563935247547
1185	 0.272894264454222
1186	 0.273237607792749
1187	 0.273574623268345
1188	 0.273913928339763
1189	 0.274236512587339
1190	 0.274548356997485
1191	 0.274857318857421
1192	 0.275155543896944
1193	 0.275454827369164
1194	 0.275742316946289
1195	 0.276046102466641
1196	 0.276350317607787
1197	 0.276678961823051
1198	 0.27700914217839
1199	 0.277371616813566
1200	 0.27768644280312
1201	 0.277988508099255
1202	 0.278286284591833
1203	 0.278525181521456
1204	 0.278850039604974
1205	 0.27924402464946
1206	 0.279574250904835
1207	 0.279944034993583
1208	 0.280255452665874
1209	 0.280447213329685
1210	 0.280732323827819
1211	 0.281085355301223
1212	 0.281382144548346
1213	 0.281674184409466
1214	 0.28198296739604
1215	 0.28228885899899
1216	 0.282546813225178
1217	 0.282829402908981
1218	 0.283150544814539
1219	 0.28344093346862
1220	 0.283692315907027
1221	 0.283975737070626
1222	 0.284291928862226
1223	 0.284572142072202
1224	 0.284832744861081
1225	 0.285102856477625
1226	 0.285364102845113
1227	 0.285626353287795
1228	 0.285879044044008
1229	 0.28615817765707
1230	 0.28646732767898
1231	 0.286743303418738
1232	 0.287016367296171
1233	 0.287294473370745
1234	 0.287573975532957
1235	 0.287803165834224
1236	 0.288063638569855
1237	 0.288341633170298
1238	 0.288616935732555
1239	 0.288894971495869
1240	 0.289151477187347
1241	 0.289402006143617
1242	 0.289664835107601
1243	 0.289911570749874
1244	 0.290165174265496
1245	 0.290465031817216
1246	 0.290704507033153
1247	 0.290873437522481
1248	 0.291104228775061
1249	 0.291330861373081
1250	 0.291579787616623
1251	 0.291889223718288
1252	 0.292169305409586
1253	 0.292457175192426
1254	 0.292715655395535
1255	 0.292957151618514
1256	 0.293176577551858
1257	 0.29341745508495
1258	 0.293655856595162
1259	 0.293865492406563
1260	 0.294059027650433
1261	 0.294293217893983
1262	 0.294519249800771
1263	 0.294745338983028
1264	 0.295041417068684
1265	 0.295251370628112
1266	 0.295371499007511
1267	 0.295557331452887
1268	 0.29574390190714
1269	 0.295939749836531
1270	 0.296179496688037
1271	 0.296386830053391
1272	 0.29658561437464
1273	 0.296768458236415
1274	 0.296938596503918
1275	 0.297099400023139
1276	 0.29720840691304
1277	 0.297364232480298
1278	 0.297537872177497
1279	 0.297734275380654
1280	 0.297895247727802
1281	 0.298071099910031
1282	 0.298239542270389
1283	 0.298378516548771
1284	 0.298527643096148
1285	 0.29869981411718
1286	 0.29885366958944
1287	 0.298989988355391
1288	 0.299121842952926
1289	 0.299247260156968
1290	 0.299383474251797
1291	 0.299513462381564
1292	 0.299640219694714
1293	 0.299792736526337
1294	 0.299917780956339
1295	 0.300005307261459
1296	 0.300111458837141
1297	 0.300215642288231
1298	 0.300325023047169
1299	 0.300456527411141
1300	 0.300576366218423
1301	 0.300656955761947
1302	 0.300717765806551
1303	 0.300776516966406
1304	 0.300796740928033
1305	 0.300843838893646
1306	 0.300906152669287
1307	 0.300954413761445
1308	 0.301006582066949
1309	 0.301036867852595
1310	 0.301057222493363
1311	 0.301066808384805
1312	 0.301026897932439
1313	 0.301045473117503
1314	 0.301091652307417
1315	 0.301129751072176
1316	 0.301227105499826
1317	 0.301258853023135
1318	 0.301248718693401
1319	 0.301237602483934
1320	 0.301180829228602
1321	 0.301149480547751
1322	 0.301110157356215
1323	 0.301099462227283
1324	 0.301118592949088
1325	 0.30114315448435
1326	 0.301154000260962
1327	 0.301145036340558
1328	 0.301117048740361
1329	 0.301037100934264
1330	 0.301011502932083
1331	 0.301005316684934
1332	 0.300986420394868
1333	 0.30100897162319
1334	 0.300954616704284
1335	 0.300826690023274
1336	 0.300768221531893
1337	 0.300690428799286
1338	 0.300652672951414
1339	 0.300704612064844
1340	 0.300682577900526
1341	 0.300624061011927
1342	 0.300578613957862
1343	 0.300521921734372
1344	 0.300456293076743
1345	 0.300411903468968
1346	 0.300330063191615
1347	 0.300212588074938
1348	 0.300086842462619
1349	 0.299936305694651
1350	 0.299786898627159
1351	 0.299625614677135
1352	 0.299476122427282
1353	 0.299305622323275
1354	 0.299144425337772
1355	 0.298983540466157
1356	 0.298814957047243
1357	 0.298663352231252
1358	 0.298538893588169
1359	 0.298369484325356
1360	 0.298190454376127
1361	 0.298006388461857
1362	 0.297810208623278
1363	 0.297585164399344
1364	 0.297347036416002
1365	 0.297102973682916
1366	 0.296855320742466
1367	 0.296558533338885
1368	 0.296272884979694
1369	 0.295915224633532
1370	 0.295501720140041
1371	 0.295041890228884
1372	 0.294598625379119
1373	 0.294013684218522
1374	 0.293351640373704
1375	 0.292586151655691
1376	 0.291707315801879
1377	 0.290728782435459
1378	 0.289679730930228
1379	 0.288596486990584
1380	 0.287444712156337
1381	 0.286215499276422
1382	 0.284931450245449
1383	 0.283606016219649
1384	 0.282299303560464
1385	 0.280945525492656
1386	 0.279673359348666
1387	 0.278392325428493
1388	 0.277246955583342
1389	 0.276147816846805
1390	 0.275157217671862
1391	 0.274288188828249
1392	 0.273441211184075
1393	 0.272693869602774
1394	 0.271904389333091
1395	 0.271190687431858
1396	 0.270358221093255
1397	 0.269503562628759
1398	 0.26856029376454
1399	 0.267544194242806
1400	 0.266469536367155
1401	 0.265334987309484
1402	 0.26412969728193
1403	 0.262811301086012
1404	 0.261507199193914
1405	 0.260091517813213
1406	 0.258776055374169
1407	 0.257481347946027
1408	 0.256230054413058
1409	 0.255050598824074
1410	 0.253967671495292
1411	 0.252981636779593
1412	 0.25216813111379
1413	 0.251560971248215
1414	 0.251096417452179
1415	 0.250809335398858
1416	 0.250658064954229
1417	 0.250572083959586
1418	 0.250604027443714
1419	 0.250689741435107
1420	 0.250910841731954
1421	 0.251047531910403
1422	 0.251229166582359
1423	 0.251388665670795
1424	 0.251501421250541
1425	 0.251649606616502
1426	 0.251824255683934
1427	 0.252000178384343
1428	 0.252182365496294
1429	 0.252359053560393
1430	 0.252559741523884
1431	 0.252735780965807
1432	 0.252902057578335
1433	 0.253041808202881
1434	 0.25315988589248
1435	 0.253278890842626
1436	 0.253368040760656
1437	 0.253471531611991
1438	 0.253592244869079
1439	 0.253696606427114
1440	 0.253780929305019
1441	 0.253883944216999
1442	 0.253959054512595
1443	 0.254091249096528
1444	 0.254260614787546
1445	 0.254435560958219
1446	 0.254669505793703
1447	 0.254944941234008
1448	 0.255260154415638
1449	 0.255617411506112
1450	 0.256003141138937
1451	 0.25639491531869
1452	 0.256776477012242
1453	 0.257168705897252
1454	 0.257547647210945
1455	 0.257913398900594
1456	 0.258253699107232
1457	 0.258579878726741
1458	 0.258870987665818
1459	 0.259127671102666
1460	 0.259386419000797
1461	 0.259614475252177
1462	 0.259866007098885
1463	 0.260103432116983
1464	 0.260379370572639
1465	 0.260676971182699
1466	 0.260978751015922
1467	 0.261303107014957
1468	 0.261639130036453
1469	 0.26196334334029
1470	 0.262334763649528
1471	 0.262753289708923
1472	 0.263156647866803
1473	 0.263575953469007
1474	 0.264010584286762
1475	 0.264457525138044
1476	 0.264899910101726
1477	 0.265356862178441
1478	 0.265806288309522
1479	 0.266255719030178
1480	 0.266686957468866
1481	 0.267130455406848
1482	 0.267547754655858
1483	 0.267919221261786
1484	 0.268305588175901
1485	 0.268691553228872
1486	 0.269069912044888
1487	 0.26943447302516
1488	 0.269824195212886
1489	 0.270221316673993
1490	 0.270613679366001
1491	 0.271007768957073
1492	 0.271426983291138
1493	 0.27184964448932
1494	 0.272280232004032
1495	 0.272749179980463
1496	 0.273217367554446
1497	 0.273679719665852
1498	 0.274139006772672
1499	 0.274569336018309
1500	 0.275001927252295
1501	 0.275414298132052
1502	 0.275828568986493
1503	 0.276256880861839
1504	 0.27666188564021
1505	 0.277075765834213
1506	 0.277491476597954
1507	 0.277882884617464
1508	 0.27827580921906
1509	 0.278629029492913
1510	 0.278949551268038
1511	 0.279260247404291
1512	 0.279544648785656
1513	 0.279831169184004
1514	 0.2801065565602
1515	 0.280376492066649
1516	 0.280633273950671
1517	 0.280900412733859
1518	 0.281171107488873
1519	 0.281423742033816
1520	 0.281670478153679
1521	 0.281917651751358
1522	 0.282168790148712
1523	 0.282382674707996
1524	 0.282570437205478
1525	 0.282784533415557
1526	 0.28299315850466
1527	 0.28317434743698
1528	 0.283368563970795
1529	 0.283540916980554
1530	 0.283656366209198
1531	 0.283803073565561
1532	 0.283968498952666
1533	 0.284134188015071
1534	 0.284297286358233
1535	 0.284469532405147
1536	 0.284665122808808
1537	 0.284834553419683
1538	 0.284977550673865
1539	 0.285142465227199
1540	 0.285299973186426
1541	 0.285480398491223
1542	 0.28567921865527
1543	 0.285898666725724
1544	 0.286144506514506
1545	 0.286375534429534
1546	 0.286623764882875
1547	 0.286861877281348
1548	 0.287086772309604
1549	 0.287314440508843
1550	 0.287549758479546
1551	 0.287775567786184
1552	 0.287983367211794
1553	 0.288204105601939
1554	 0.288437090514128
1555	 0.288656102221765
1556	 0.288900743535819
1557	 0.289092527816503
1558	 0.289234345498974
1559	 0.289389728427991
1560	 0.289499839068056
1561	 0.289647868367556
1562	 0.289828071316151
1563	 0.289999739617088
1564	 0.290205477026136
1565	 0.290371901073983
1566	 0.29047739524648
1567	 0.290639289874511
1568	 0.290830813859486
1569	 0.290994289751743
1570	 0.291181207553725
1571	 0.291367396225569
1572	 0.291526182316506
1573	 0.291678290847179
1574	 0.291835771496719
1575	 0.292010138982025
1576	 0.292131282049852
1577	 0.292244598045467
1578	 0.292405522735926
1579	 0.292562406933405
1580	 0.292690331432821
1581	 0.292813779867756
1582	 0.292929841043112
1583	 0.293050118735171
1584	 0.293192957865974
1585	 0.293342430571636
1586	 0.293465975287858
1587	 0.293564884763857
1588	 0.29368374676038
1589	 0.293818912666187
1590	 0.29395024516526
1591	 0.294069912223248
1592	 0.294176806188802
1593	 0.294306496456501
1594	 0.294439429685423
1595	 0.29456290062851
1596	 0.294706360227944
1597	 0.294824955390661
1598	 0.294932816293627
1599	 0.295065598027006
1600	 0.295195924033305
1601	 0.295328677609406
1602	 0.295466752247014
1603	 0.295597157327682
1604	 0.295692164842141
1605	 0.295784886359054
1606	 0.295897922927021
1607	 0.295978684451614
1608	 0.296064039957055
1609	 0.296167449795295
1610	 0.296267118863942
1611	 0.29638674825233
1612	 0.296492404423373
1613	 0.296585384038845
1614	 0.296672521411843
1615	 0.296767140566575
1616	 0.296934387601433
1617	 0.297082000734587
1618	 0.29718205401217
1619	 0.297268924620589
1620	 0.297343973296894
1621	 0.297360946001255
1622	 0.297442041131303
1623	 0.297548703914561
1624	 0.297657715233875
1625	 0.297795884540993
1626	 0.297873501903913
1627	 0.297934328515062
1628	 0.297996593939438
1629	 0.298046600587707
1630	 0.298099047739123
1631	 0.298178000376506
1632	 0.298296683314017
1633	 0.298379809290971
1634	 0.298460799964187
1635	 0.298582002291118
1636	 0.298644347784736
1637	 0.298694999718672
1638	 0.298793728474606
1639	 0.298894626359426
1640	 0.299009131883935
1641	 0.299095379649443
1642	 0.299151493712334
1643	 0.299221816949362
1644	 0.299271423309486
1645	 0.299337039884372
1646	 0.299444962243895
1647	 0.299521473536936
1648	 0.29960042127228
1649	 0.299647414744371
1650	 0.29963621629204
1651	 0.29965259650504
1652	 0.299659036656573
1653	 0.299676067930945
1654	 0.299726744753735
1655	 0.299759431031955
1656	 0.299771607358114
1657	 0.299800675189423
1658	 0.299817687994069
1659	 0.299863374494701
1660	 0.299970159291728
1661	 0.300025270979432
1662	 0.300071139256843
1663	 0.300105079898629
1664	 0.300076263687193
1665	 0.300084383676134
1666	 0.300113367916072
1667	 0.30014280717166
1668	 0.300199331867786
1669	 0.300231821354627
1670	 0.300242578813193
1671	 0.300271087649014
1672	 0.300298700097334
1673	 0.300326170896558
1674	 0.30035798909655
1675	 0.300402607114101
1676	 0.300482943413291
1677	 0.300499048025563
1678	 0.300485885390478
1679	 0.30048160291315
1680	 0.300413585017564
1681	 0.300397390071689
1682	 0.300435115470797
1683	 0.30044756072856
1684	 0.300472780947038
1685	 0.300460799878738
1686	 0.300422800282001
1687	 0.300388659391655
1688	 0.300325514136588
1689	 0.300289070120565
1690	 0.300249637156269
1691	 0.300247696650616
1692	 0.300298955928404
1693	 0.300291649347783
1694	 0.300298203424306
1695	 0.300257234731578
1696	 0.30014521993132
1697	 0.300067926273208
1698	 0.299981621866873
1699	 0.299916987834994
1700	 0.299876500287703
1701	 0.299804339878528
1702	 0.299714211934625
1703	 0.299658318875997
1704	 0.299629852778764
1705	 0.299535591469224
1706	 0.299442179647759
1707	 0.299315648540137
1708	 0.299102362364547
1709	 0.298956007809022
1710	 0.298849243998795
1711	 0.298707516993467
1712	 0.298555750380889
1713	 0.298410645854128
1714	 0.298263050498074
1715	 0.298106152589641
1716	 0.297955039616364
1717	 0.297797957657311
1718	 0.297625098853529
1719	 0.297432423902635
1720	 0.297246773145563
1721	 0.297047043303773
1722	 0.29683599010037
1723	 0.296633156998639
1724	 0.296387411942109
1725	 0.296115165708293
1726	 0.295895046683742
1727	 0.295681399451289
1728	 0.295478208480668
1729	 0.295284605843235
1730	 0.295001660093802
1731	 0.294719913433449
1732	 0.294440357030427
1733	 0.294114115810998
1734	 0.293847090128472
1735	 0.293575690575243
1736	 0.293283724995333
1737	 0.292971924499006
1738	 0.292689641722331
1739	 0.29240937284543
1740	 0.292133018539835
1741	 0.291873866239631
1742	 0.291628878709013
1743	 0.291396733132359
1744	 0.291160552893602
1745	 0.290938754779131
1746	 0.290729227202046
1747	 0.290498753297181
1748	 0.290285551646202
1749	 0.290107537986381
1750	 0.289933186407053
1751	 0.289755977357478
1752	 0.28960969947888
1753	 0.289488244495037
1754	 0.28935101232607
1755	 0.289235972224646
1756	 0.289085971070961
1757	 0.288911550322334
1758	 0.288779374119602
1759	 0.288650552614249
1760	 0.288529204082559
1761	 0.288378136846366
1762	 0.288174464268203
1763	 0.288003464286793
1764	 0.287849504869532
1765	 0.287674950251302
1766	 0.287518762882057
1767	 0.287364925102912
1768	 0.287181069330143
1769	 0.286998589452048
1770	 0.286868466114452
1771	 0.286761146233975
1772	 0.286639956424272
1773	 0.286526912570545
1774	 0.286407649881025
1775	 0.286235722078777
1776	 0.286081935433577
1777	 0.286025949450158
1778	 0.285961163807403
1779	 0.285856649528263
1780	 0.285841780186408
1781	 0.285803679027923
1782	 0.285762101275199
1783	 0.285716298151274
1784	 0.285634575568308
1785	 0.285609504822699
1786	 0.285634191363879
1787	 0.28562811150777
1788	 0.285652788676895
1789	 0.285652817952134
1790	 0.285577891054203
1791	 0.285585258989081
1792	 0.285667525867362
1793	 0.285641106915386
1794	 0.285645845426001
1795	 0.285679481904469
1796	 0.285705383844822
1797	 0.285757196010297
1798	 0.28582413928092
1799	 0.285833805502042
1800	 0.285791128399434
1801	 0.285749108146578
1802	 0.285720712584214
1803	 0.285706494239036
1804	 0.285746298972416
1805	 0.285830514702458
1806	 0.285930193235875
1807	 0.286034776886925
1808	 0.286024082586522
1809	 0.285970853404196
1810	 0.285963028012183
1811	 0.285904885858779
1812	 0.285894410933704
1813	 0.28586880171984
1814	 0.285845494963148
1815	 0.285833238631505
1816	 0.285824218486232
1817	 0.28585808516956
1818	 0.28580338475014
1819	 0.285754901890234
1820	 0.285760083236156
1821	 0.285762016187568
1822	 0.285782405487149
1823	 0.285789330625586
1824	 0.28573235214232
1825	 0.285657195445497
1826	 0.285581688403045
1827	 0.285526209897341
1828	 0.285396660240596
1829	 0.285216853192009
1830	 0.285166028982129
1831	 0.290381766795257
1832	 0.290289081016679
1833	 0.290272651780687
1834	 0.290198652026337
1835	 0.290087488407215
1836	 0.289993473762831
1837	 0.289854583409095
1838	 0.289755283686593
1839	 0.28971342618524
1840	 0.289606469744665
1841	 0.289470467033393
1842	 0.289436475103189
1843	 0.289320986837897
1844	 0.289149855872108
1845	 0.288985020703239
1846	 0.288803907023001
1847	 0.288641467083205
1848	 0.288498361315447
1849	 0.288305286998453
1850	 0.28817022729472
1851	 0.287803416021462
1852	 0.287293525396829
1853	 0.286897646634675
1854	 0.286371012788897
1855	 0.285693073836645
1856	 0.285144486518595
1857	 0.284650080405954
1858	 0.284007900493593
1859	 0.283354913353876
1860	 0.28266374949789
1861	 0.28188286080825
1862	 0.28100119372551
1863	 0.280064314325906
1864	 0.279091339804831
1865	 0.277930592398256
1866	 0.276542929125064
1867	 0.275141672345896
1868	 0.273621035008693
1869	 0.272080728096484
1870	 0.270500050723512
1871	 0.268827939223647
1872	 0.267082070094912
1873	 0.265199250744907
1874	 0.263129136133511
1875	 0.261050769331735
1876	 0.258929211021049
1877	 0.25660183858194
1878	 0.254192374921327
1879	 0.25166482077279
1880	 0.249071101331216
1881	 0.246428957052483
1882	 0.243778856493529
1883	 0.240942611551864
1884	 0.237998496662223
1885	 0.23497668629504
1886	 0.231640046334904
1887	 0.228197067403599
1888	 0.224836322615605
1889	 0.22139320779726
1890	 0.217782157456109
1891	 0.214245874682446
1892	 0.210850684684962
1893	 0.207329586141022
1894	 0.203941225905793
1895	 0.200606208313362
1896	 0.197238468118742
1897	 0.19411157980619
1898	 0.191006520186985
1899	 0.188038672158114
1900	 0.185283331995711
1901	 0.182768393146769
1902	 0.180298571625897
1903	 0.177977974138952
1904	 0.175820799522561
1905	 0.173961884030825
1906	 0.17230534618608
1907	 0.170787511962408
1908	 0.169526497460109
1909	 0.168401591419528
1910	 0.167410262384433
1911	 0.166562395079402
1912	 0.165913436857849
1913	 0.165407803697427
1914	 0.16494567242226
1915	 0.164518961981337
1916	 0.164190261909794
1917	 0.163972434254555
1918	 0.163817169356047
1919	 0.163652766044526
1920	 0.163637667445976
1921	 0.163694645611174
1922	 0.163690874513371
1923	 0.163730401940055
1924	 0.163860347220714
1925	 0.163953176279991
1926	 0.163983636521571
1927	 0.164070145147553
1928	 0.164111818861978
1929	 0.1640768805508
1930	 0.164063981201244
1931	 0.164086428488694
1932	 0.164197880977165
1933	 0.164413965897518
1934	 0.16457487989735
1935	 0.164755674333108
1936	 0.164901990244905
1937	 0.165076868463125
1938	 0.165276924269979
1939	 0.165611000274239
1940	 0.165965061073597
1941	 0.166291798823969
1942	 0.166688433398999
1943	 0.167080408505711
1944	 0.16751981003574
1945	 0.16797797750137
1946	 0.168501710419541
1947	 0.168978143868248
1948	 0.169437444851662
1949	 0.169908656826762
1950	 0.170421060249198
1951	 0.170990226603714
1952	 0.171652669485041
1953	 0.172397302986056
1954	 0.173123179783927
1955	 0.173913217708836
1956	 0.17474324098053
1957	 0.175585611161878
1958	 0.176425960069269
1959	 0.177371009905363
1960	 0.178144412142394
1961	 0.178826608050587
1962	 0.179491089758734
1963	 0.180173357249976
1964	 0.180901910711136
1965	 0.181625335056758
1966	 0.182330074734488
1967	 0.182963243814231
1968	 0.183580265886294
1969	 0.18423995210517
1970	 0.184962051753449
1971	 0.185641953906901
1972	 0.186278132561747
1973	 0.186946878927318
1974	 0.187623449776326
1975	 0.18831700008891
1976	 0.188950721646149
1977	 0.189723382788961
1978	 0.190534983288942
1979	 0.191230654549857
1980	 0.191969924929443
1981	 0.192737315650878
1982	 0.193494770974811
1983	 0.194182256030431
1984	 0.194976108279084
1985	 0.195836574896991
1986	 0.196698280902901
1987	 0.19759027085535
1988	 0.198495304354137
1989	 0.199440198609302
1990	 0.200435666257168
1991	 0.201409625625943
1992	 0.202477035388367
1993	 0.203573010610409
1994	 0.20460141728762
1995	 0.205690530133196
1996	 0.206803218183867
1997	 0.207971704473982
1998	 0.209250128992144
1999	 0.210415091350356
2000	 0.211605831078735
2001	 0.212713874768614
2002	 0.213685381835891
2003	 0.214658795448016
2004	 0.21568662871639
2005	 0.216639495177685
2006	 0.217576952313126
2007	 0.218504978506366
2008	 0.219411146850077
2009	 0.220280259565214
2010	 0.22115031135784
2011	 0.222005853578209
2012	 0.222855199149681
2013	 0.223688607578708
2014	 0.224515141825528
2015	 0.225373015864866
2016	 0.226162363610723
2017	 0.22688247577262
2018	 0.227562642109805
2019	 0.228285461812542
2020	 0.229002520002133
2021	 0.229691395629309
2022	 0.230420090060622
2023	 0.2311259895228
2024	 0.231779397987418
2025	 0.232432680760428
2026	 0.233136132221371
2027	 0.233736626174859
2028	 0.234245013272512
2029	 0.234753376817656
2030	 0.23529470176548
2031	 0.235861024346005
2032	 0.236465758295122
2033	 0.237111450493471
2034	 0.237752669014534
2035	 0.238323994893648
2036	 0.238879889282335
2037	 0.239417357810174
2038	 0.239932775669028
2039	 0.240373614274914
2040	 0.240886869591854
2041	 0.241399887170903
2042	 0.241935765435294
2043	 0.242536209922997
2044	 0.243118852813144
2045	 0.243613651328004
2046	 0.244057452987487
2047	 0.244422794624842
2048	 0.244816189134702
2049	 0.245257634983353
2050	 0.24571162969212
2051	 0.246126094195913
2052	 0.246528105327376
2053	 0.246920875625893
2054	 0.247293206297026
2055	 0.247642353382134
2056	 0.247979134393092
2057	 0.248325818556006
2058	 0.248640521382215
2059	 0.248978816035625
2060	 0.249311213373537
2061	 0.249586728751347
2062	 0.249892607316025
2063	 0.25025578523833
2064	 0.250633976798755
2065	 0.251073082106608
2066	 0.251467639170331
2067	 0.251868088038863
2068	 0.252182754978908
2069	 0.25245527247527
2070	 0.252714542563589
2071	 0.25287234180489
2072	 0.253133079191145
2073	 0.253411425575699
2074	 0.253746040479767
2075	 0.254238956894366
2076	 0.254548954294932
2077	 0.254851205143648
2078	 0.255089983627958
2079	 0.255191278816045
2080	 0.255388256570413
2081	 0.255665239446457
2082	 0.256046785993457
2083	 0.256367152762798
2084	 0.256762736646759
2085	 0.257056736254632
2086	 0.257296950535168
2087	 0.25752134717847
2088	 0.257647597556256
2089	 0.25787641504454
2090	 0.258175699768157
2091	 0.258385067156784
2092	 0.258597073121316
2093	 0.258820645639177
2094	 0.258954361191973
2095	 0.259062790794446
2096	 0.259224635358758
2097	 0.259460026616896
2098	 0.25967060857362
2099	 0.259894389948722
2100	 0.260110711959909
2101	 0.260320233606967
2102	 0.260549562760079
2103	 0.260831116089066
2104	 0.261029240904426
2105	 0.261177693414528
2106	 0.261362052712207
2107	 0.261526745790308
2108	 0.261664137045392
2109	 0.26181051030863
2110	 0.261945229214522
2111	 0.262136170201134
2112	 0.262282891995597
2113	 0.262399341397182
2114	 0.262611232902953
2115	 0.262817993381781
2116	 0.262970907754684
2117	 0.263204837693887
2118	 0.263553682740608
2119	 0.263819147739564
2120	 0.264117920711249
2121	 0.264286033142781
2122	 0.264390248021135
2123	 0.264475110115283
2124	 0.264418422283375
2125	 0.264430824564696
2126	 0.264414641717374
2127	 0.264499004169427
2128	 0.264622397669227
2129	 0.264716644490307
2130	 0.264814070579249
2131	 0.264868821149512
2132	 0.264890340694077
2133	 0.264835641625082
2134	 0.26480949262949
2135	 0.264809183397823
2136	 0.264708934084932
2137	 0.264519976091783
2138	 0.2644157216096
2139	 0.264279030358224
2140	 0.264177421612626
2141	 0.264211497395046
2142	 0.26409572018248
2143	 0.263897951765304
2144	 0.263696052123655
2145	 0.263420994255921
2146	 0.263138942891356
2147	 0.262855147669147
2148	 0.262535750411227
2149	 0.262172185788829
2150	 0.261854902655688
2151	 0.261471614022914
2152	 0.261109858853596
2153	 0.260727058965643
2154	 0.260285851542145
2155	 0.259924183115114
2156	 0.259649938308325
2157	 0.259262289034863
2158	 0.258804980436785
2159	 0.25844599829995
2160	 0.258060207991036
2161	 0.257695833832118
2162	 0.257507344908576
2163	 0.257169932932077
2164	 0.256690987341608
2165	 0.256273708888551
2166	 0.255807432410134
2167	 0.255375145893444
2168	 0.254940109556639
2169	 0.254599697113831
2170	 0.254227294645529
2171	 0.253974524687032
2172	 0.253828456827531
2173	 0.253562944912571
2174	 0.25329439800822
2175	 0.253048949430426
2176	 0.252723882859042
2177	 0.252328832008589
2178	 0.251929373945715
2179	 0.251426499307432
2180	 0.251044367050061
2181	 0.250739348100247
2182	 0.250343532167817
2183	 0.250015405861027
2184	 0.24958535468687
2185	 0.249004905877538
2186	 0.248484416705354
2187	 0.24797539724702
2188	 0.247424986233404
2189	 0.24683091010451
2190	 0.246308359706726
2191	 0.245644392358662
2192	 0.244975241449362
2193	 0.244309202311511
2194	 0.243532218504562
2195	 0.242743793005526
2196	 0.241933862330421
2197	 0.24111606272255
2198	 0.240218775028402
2199	 0.239420188474552
2200	 0.238692792425644
2201	 0.237900885687846
2202	 0.237066901150265
2203	 0.236349395029402
2204	 0.235585959517259
2205	 0.234987283207792
2206	 0.23446798501037
2207	 0.23413479479287
2208	 0.233854318214957
2209	 0.23384160489915
2210	 0.234122423939223
2211	 0.234477089125042
2212	 0.235068536336085
2213	 0.235680832776888
2214	 0.236409370287865
2215	 0.237161660098233
2216	 0.238033309538349
2217	 0.238863631688126
2218	 0.239682525619802
2219	 0.240377070774445
2220	 0.240937389767408
2221	 0.241431097443152
2222	 0.241842636304154
2223	 0.242179879038707
2224	 0.242463697742145
2225	 0.242634229119662
2226	 0.242898862103579
2227	 0.243157179553548
2228	 0.243394313422712
2229	 0.243729918755921
2230	 0.243858908341327
2231	 0.243832918356634
2232	 0.243832048806856
2233	 0.243699425027919
2234	 0.243699289476783
2235	 0.243777155211493
2236	 0.243814180193783
2237	 0.243891347944205
2238	 0.24388553270588
2239	 0.2438312846713
2240	 0.243733826029165
2241	 0.243534624640048
2242	 0.243469699234224
2243	 0.243429892907323
2244	 0.243404691755189
2245	 0.243435382602006
2246	 0.243540944629971
2247	 0.24357029809828
2248	 0.243522732002716
2249	 0.243535553239748
2250	 0.243383995052282
2251	 0.243260142826269
2252	 0.24324093011615
2253	 0.243255800473427
2254	 0.243314588527186
2255	 0.243395106120909
2256	 0.243494555417941
2257	 0.243584193897514
2258	 0.243749885357637
2259	 0.243725368600484
2260	 0.243613202532188
2261	 0.243513170684128
2262	 0.24329164984782
2263	 0.24315189867761
2264	 0.243042852552161
2265	 0.242877159798807
2266	 0.24269351632202
2267	 0.242510050138844
2268	 0.242335350557688
2269	 0.242157157380475
2270	 0.241959250376784
2271	 0.241739081992187
2272	 0.241425741591427
2273	 0.241241209239443
2274	 0.241177388177814
2275	 0.241025713105094
2276	 0.240978922245338
2277	 0.240813494315455
2278	 0.240512563815133
2279	 0.240179717014096
2280	 0.239790443112687
2281	 0.239345499517202
2282	 0.238768934421776
2283	 0.238295474179643
2284	 0.237906661076142
2285	 0.237434045742665
2286	 0.237009611212918
2287	 0.236711031689257
2288	 0.236306660862321
2289	 0.235977685659241
2290	 0.235819993466016
2291	 0.235466547152173
2292	 0.235008226097806
2293	 0.234698845726928
2294	 0.234312641523448
2295	 0.234084316019581
2296	 0.233926819482315
2297	 0.233658893671888
2298	 0.233488496114034
2299	 0.233045585581384
2300	 0.232615584299362
2301	 0.232231733945616
2302	 0.23176847790476
2303	 0.231304374779978
2304	 0.230701020428326
2305	 0.229985870662729
2306	 0.229290960642517
2307	 0.228387191179598
2308	 0.227698804908279
2309	 0.227065551685385
2310	 0.226587576786968
2311	 0.226236914272327
2312	 0.22593888057628
2313	 0.225863517715945
2314	 0.225613898453908
2315	 0.225252600123755
2316	 0.225183825821246
2317	 0.225124493224031
2318	 0.225205093999514
2319	 0.225626798082771
2320	 0.225861395826513
2321	 0.22601238733615
2322	 0.22632444752181
2323	 0.226890057085752
2324	 0.227001856915186
2325	 0.226903952050842
2326	 0.226943027740292
2327	 0.226711001119756
2328	 0.226638860508327
2329	 0.226789436324689
2330	 0.226775558196081
2331	 0.226651920000369
2332	 0.22657501217966
2333	 0.226632679407133
2334	 0.226546310714364
2335	 0.226324333314704
2336	 0.226077117868923
2337	 0.22555837662364
2338	 0.225297822338913
2339	 0.225291418868779
2340	 0.225111417290297
2341	 0.224964506716149
2342	 0.224937369617938
2343	 0.224352378224959
2344	 0.223594025419572
2345	 0.22304357993138
2346	 0.222386706704366
2347	 0.221967229257074
2348	 0.221668902710636
2349	 0.221141366183527
2350	 0.22071649519202
2351	 0.220489228214526
2352	 0.220195012877439
2353	 0.219748894265497
2354	 0.219340778650541
2355	 0.218865874838344
2356	 0.218242200312894
2357	 0.218034233714867
2358	 0.217832404943527
2359	 0.217371131303394
2360	 0.217056197043337
2361	 0.216297821102484
2362	 0.215449154796435
2363	 0.214852286966733
2364	 0.214260836833328
2365	 0.214078090647743
2366	 0.214108324372294
2367	 0.213918787929814
2368	 0.213384945973576
2369	 0.212608663562768
2370	 0.211485358214949
2371	 0.210386011495387
2372	 0.209695754079576
2373	 0.208908025805247
2374	 0.208455775234905
2375	 0.20818295719401
2376	 0.207424035690992
2377	 0.206702875004622
2378	 0.20597154518449
2379	 0.205050167566641
2380	 0.204420772569091
2381	 0.204243472254245
2382	 0.203873541238278
2383	 0.203131420850418
2384	 0.202525189957934
2385	 0.201703144684949
2386	 0.200924407662807
2387	 0.200638102061116
2388	 0.200063147677909
2389	 0.199633176091967
2390	 0.199218840148962
2391	 0.198235978648893
2392	 0.197758679988812
2393	 0.197240915603318
2394	 0.196282505924727
2395	 0.195570217012691
2396	 0.195019965462583
2397	 0.194595677098655
2398	 0.194179359932138
2399	 0.193884978095828
2400	 0.193497269992292
2401	 0.1929172218822
2402	 0.192494101908296
2403	 0.192287441743096
2404	 0.191883201478966
2405	 0.191225847577589
2406	 0.190583547440224
2407	 0.189799987516432
2408	 0.18901591008656
2409	 0.188160446848262
2410	 0.187516608569413
2411	 0.18706411830955
2412	 0.186619291994769
2413	 0.186318369811798
2414	 0.185697266854001
2415	 0.185139053393931
2416	 0.184711855152503
2417	 0.184165302797412
2418	 0.183839273089312
2419	 0.183487870624271
2420	 0.18290967961779
2421	 0.182405299945944
2422	 0.181815770832337
2423	 0.181232268250519
2424	 0.180640317650244
2425	 0.18018825398553
2426	 0.179433556359212
2427	 0.178170590346714
2428	 0.177578332904908
2429	 0.177066018515863
2430	 0.176950154635909
2431	 0.177855389698131
2432	 0.177725330841865
2433	 0.177258807323397
2434	 0.176693580228262
2435	 0.175238234415416
2436	 0.174563464705598
2437	 0.174406614293169
2438	 0.173969712955268
2439	 0.173649527115318
2440	 0.173580773381436
2441	 0.17322472224355
2442	 0.172910254427678
2443	 0.172382487284511
2444	 0.17129433237156
2445	 0.170735057086832
2446	 0.169802679610965
2447	 0.169631998965338
2448	 0.169362511400281
2449	 0.16808011868826
2450	 0.167895650497653
2451	 0.167188539475236
2452	 0.166725974862382
2453	 0.167200046314783
2454	 0.166521672614188
2455	 0.165843794846131
2456	 0.165480013954173
2457	 0.164365006590699
2458	 0.163691173302853
2459	 0.16366934476757
2460	 0.163801618601635
2461	 0.163608656556194
2462	 0.163334215621494
2463	 0.163276162666946
2464	 0.162211855243826
2465	 0.161340001705522
2466	 0.160927509990114
2467	 0.160178062604404
2468	 0.159622127428517
2469	 0.15922277106025
2470	 0.158768013572204
2471	 0.157701418539547
2472	 0.156852912117002
2473	 0.156440603284369
2474	 0.156087569037196
2475	 0.156104223564556
2476	 0.155830686748102
2477	 0.155540694901712
2478	 0.155555436207992
2479	 0.156315535562875
2480	 0.156867664015445
2481	 0.156325098368367
2482	 0.155841091868036
2483	 0.15535254500806
2484	 0.154613082619918
2485	 0.154515647212834
2486	 0.154050154205914
2487	 0.152937947644491
2488	 0.151777062498462
2489	 0.15084706957895
2490	 0.15087338148112
2491	 0.151082869009317
2492	 0.151144195004965
2493	 0.151620685775771
2494	 0.151689314234622
2495	 0.15133084613207
2496	 0.150508276819206
2497	 0.149952225129643
2498	 0.149847458747376
2499	 0.149028629169549
2500	 0.14969628017322
