Wavelength	signature0028.asd
350	 0.121718483357921
351	 0.117885854706464
352	 0.110613694492074
353	 0.110546583769278
354	 0.122128329596427
355	 0.113332083603327
356	 0.113310466812521
357	 0.119375036427627
358	 0.107114242508597
359	 0.107275600154335
360	 0.111816212752443
361	 0.113324832528693
362	 0.111847319704218
363	 0.110734732102041
364	 0.11468508346393
365	 0.122000411216308
366	 0.115403380123448
367	 0.110391387978356
368	 0.10913945467765
369	 0.10953911120431
370	 0.113248228722629
371	 0.111722468037274
372	 0.108536139783903
373	 0.11278716429357
374	 0.111432228744003
375	 0.109457452937607
376	 0.110823201144408
377	 0.11574397861987
378	 0.114561747026124
379	 0.11080956804583
380	 0.109871893270496
381	 0.115930102789338
382	 0.113848356479768
383	 0.108164640960831
384	 0.107906925292616
385	 0.113746958329765
386	 0.114515526909455
387	 0.1110721733068
388	 0.110961510388837
389	 0.113539431431025
390	 0.114274159383003
391	 0.112673629348302
392	 0.112839444613256
393	 0.113420675118412
394	 0.114477172099906
395	 0.114988827580074
396	 0.110542048434099
397	 0.111257952906108
398	 0.114556575673549
399	 0.11489216587065
400	 0.112396237640975
401	 0.112077468710127
402	 0.114492285133877
403	 0.116816277666334
404	 0.114429709691048
405	 0.112956827024501
406	 0.114129440345216
407	 0.113579518437429
408	 0.114158106476688
409	 0.114555556256403
410	 0.113778766299224
411	 0.11374125771599
412	 0.113084074723714
413	 0.11306964043562
414	 0.114905192780427
415	 0.114060600770971
416	 0.114198249054906
417	 0.115859288891839
418	 0.116684199518215
419	 0.11681056857979
420	 0.115783565243744
421	 0.114427813009041
422	 0.115927270546208
423	 0.115702533064114
424	 0.115223316110816
425	 0.116429608535445
426	 0.116406250323531
427	 0.116022435843032
428	 0.115854854484195
429	 0.116217377746697
430	 0.117406806004178
431	 0.117531002170922
432	 0.116770654401377
433	 0.118200474082682
434	 0.11874417134618
435	 0.118636182034874
436	 0.118621154184067
437	 0.118495414373732
438	 0.118882141105527
439	 0.119319056292844
440	 0.11910909792492
441	 0.119686365310567
442	 0.12055358536361
443	 0.120829797903249
444	 0.119562430681418
445	 0.120438626591581
446	 0.121769556813826
447	 0.121897957578521
448	 0.121895592284594
449	 0.122483765071426
450	 0.123024456209181
451	 0.122675098439628
452	 0.122909663881374
453	 0.12300733158789
454	 0.12308046813282
455	 0.123988757506671
456	 0.123712387677151
457	 0.123403596694326
458	 0.123940414221405
459	 0.124509104313026
460	 0.124460966521371
461	 0.124507345208787
462	 0.125434525020996
463	 0.125859796784722
464	 0.125516099831671
465	 0.125182550928097
466	 0.126205568711008
467	 0.125895260206002
468	 0.125827909599658
469	 0.126741213250071
470	 0.126451584811136
471	 0.126754842084091
472	 0.127244030139388
473	 0.127196436858902
474	 0.12785605016853
475	 0.127807934296627
476	 0.127375620537316
477	 0.12809828392296
478	 0.128276168576084
479	 0.12860665550471
480	 0.129275504761039
481	 0.128869892081293
482	 0.12915437255818
483	 0.129501470309028
484	 0.129046774661098
485	 0.12924226340437
486	 0.129657822850831
487	 0.130011048129096
488	 0.130211113617831
489	 0.130486490579876
490	 0.131043214923732
491	 0.131759867378195
492	 0.131952000205914
493	 0.132138088283175
494	 0.132293902438652
495	 0.132340311827779
496	 0.132697235051983
497	 0.132992872741365
498	 0.133270960371386
499	 0.133853196203587
500	 0.134070101310601
501	 0.134189238004818
502	 0.1344799390203
503	 0.134959646018492
504	 0.135362077322582
505	 0.135713495676507
506	 0.136122585050909
507	 0.136590402586924
508	 0.136917999940553
509	 0.137073759358139
510	 0.137193630963511
511	 0.137691886147127
512	 0.138107098173189
513	 0.13823881629193
514	 0.138720162394786
515	 0.139241254041445
516	 0.139531860550273
517	 0.13952876778753
518	 0.140156743912535
519	 0.14073612345029
520	 0.141061262619069
521	 0.141442588387061
522	 0.141879137393788
523	 0.142250223015048
524	 0.142493988765287
525	 0.142730923638583
526	 0.142972864416327
527	 0.143330689434839
528	 0.14387380672865
529	 0.144218014696869
530	 0.144675767330696
531	 0.145282237071355
532	 0.145736437497506
533	 0.146131070109085
534	 0.146516424533679
535	 0.14694127215452
536	 0.14747308615106
537	 0.147980213284556
538	 0.148406215580421
539	 0.148777474134209
540	 0.149407387408714
541	 0.14989547151892
542	 0.150248544101671
543	 0.151047541365134
544	 0.151575458237013
545	 0.152092249464863
546	 0.152892426178228
547	 0.153619391424828
548	 0.154289026496581
549	 0.15489482584329
550	 0.15545829271146
551	 0.156347204349396
552	 0.157230363683001
553	 0.157907937771568
554	 0.158505762132806
555	 0.159271574137458
556	 0.160205153548592
557	 0.161183228194427
558	 0.161955383828949
559	 0.162808853492407
560	 0.163728853722488
561	 0.164489397867854
562	 0.16539197012083
563	 0.166349850888084
564	 0.167280579992013
565	 0.168228111834369
566	 0.169182300363316
567	 0.170160218931217
568	 0.171167182044847
569	 0.172105839017021
570	 0.173004962078394
571	 0.173916736542425
572	 0.174906584010346
573	 0.175966031730241
574	 0.176979486432785
575	 0.177951899217855
576	 0.17925811028891
577	 0.180388494295528
578	 0.181397326524782
579	 0.182528959902025
580	 0.183479996511356
581	 0.18451832544227
582	 0.185663653267522
583	 0.186594458227994
584	 0.187583610115927
585	 0.18862698077551
586	 0.189647104175016
587	 0.190530433981802
588	 0.191567145126016
589	 0.192591818259065
590	 0.193278766353525
591	 0.194282258987282
592	 0.19532929065255
593	 0.196165733124889
594	 0.196698845377794
595	 0.197419800155744
596	 0.198213569902701
597	 0.198870472613079
598	 0.199581316010391
599	 0.200209332983199
600	 0.200838774086697
601	 0.201669019407483
602	 0.20231957892488
603	 0.202958536571
604	 0.203662345630205
605	 0.204175761964562
606	 0.204716211837535
607	 0.205349753216858
608	 0.206044337550276
609	 0.206597559172847
610	 0.206975854820155
611	 0.207357880861223
612	 0.20805707914289
613	 0.208485416666973
614	 0.208837981340716
615	 0.209310809158888
616	 0.209751110909706
617	 0.210245466609541
618	 0.210709235956879
619	 0.211040435030836
620	 0.211446206550165
621	 0.211858011007924
622	 0.212248410789601
623	 0.212659061537768
624	 0.213147792487776
625	 0.213569402546363
626	 0.213854727241625
627	 0.214272497907414
628	 0.214725340485063
629	 0.215106271873678
630	 0.215338225093701
631	 0.215598103911446
632	 0.216035387086218
633	 0.216570046103875
634	 0.216829750476197
635	 0.217168579226104
636	 0.217570136892248
637	 0.217952803970824
638	 0.218360696306001
639	 0.218668991215194
640	 0.218993855760583
641	 0.219549159229224
642	 0.219961707734557
643	 0.220237896682471
644	 0.220509734453724
645	 0.221037381161068
646	 0.221365916218864
647	 0.221633174379547
648	 0.222072952244354
649	 0.222546962163988
650	 0.222955502886499
651	 0.223308368643533
652	 0.22369470371255
653	 0.224076372599797
654	 0.224436490414525
655	 0.224763189018245
656	 0.225038094925923
657	 0.225419984372461
658	 0.225857318605
659	 0.226231263173996
660	 0.226467986743475
661	 0.226901497391257
662	 0.227455889958355
663	 0.227729515365186
664	 0.228184510783132
665	 0.2286661619727
666	 0.229024723796283
667	 0.22932618538771
668	 0.229768264661879
669	 0.230246064739182
670	 0.230592273924606
671	 0.230987994192352
672	 0.231434046601412
673	 0.231889426147639
674	 0.232286893143867
675	 0.232650614852848
676	 0.233008973792564
677	 0.233397150493882
678	 0.233876196404433
679	 0.234270047985635
680	 0.234640561011912
681	 0.235104918054028
682	 0.235486530603835
683	 0.235862908982712
684	 0.236272531528129
685	 0.236695554782837
686	 0.237104950894061
687	 0.237514658025377
688	 0.237934914820906
689	 0.238335365237925
690	 0.238818988862716
691	 0.239314719122449
692	 0.239710180993236
693	 0.240126397210794
694	 0.2405623340672
695	 0.241003239801671
696	 0.241428799061389
697	 0.241804666061546
698	 0.242204462966665
699	 0.242647236722062
700	 0.242951611457915
701	 0.243318443325138
702	 0.243757427407057
703	 0.244189439639832
704	 0.244544027519401
705	 0.244888043228096
706	 0.245271379043906
707	 0.245707646844572
708	 0.24606001140499
709	 0.246368829146
710	 0.246694421807732
711	 0.247052768229584
712	 0.247410533678517
713	 0.247773531032947
714	 0.248153723934098
715	 0.248512022430813
716	 0.248820386050334
717	 0.24913041010857
718	 0.249556202621859
719	 0.24991218314905
720	 0.250235497505978
721	 0.250576170960619
722	 0.25091659530243
723	 0.251248573946508
724	 0.251560346293672
725	 0.251850137675238
726	 0.252175561142541
727	 0.252428089157017
728	 0.252662693434055
729	 0.253057297574144
730	 0.253336824367268
731	 0.25357271372739
732	 0.253825466010005
733	 0.254013920041036
734	 0.254270055311882
735	 0.254572799678256
736	 0.254860179946544
737	 0.255147371017551
738	 0.255349517217875
739	 0.255511514568596
740	 0.255757101249565
741	 0.255955180913097
742	 0.256186585536118
743	 0.256455426487496
744	 0.256602909378617
745	 0.256785114853106
746	 0.257013598227971
747	 0.257242316915449
748	 0.257374606807415
749	 0.257509367918661
750	 0.257720944976097
751	 0.25802862416871
752	 0.258199791186641
753	 0.258320361170895
754	 0.258469566505497
755	 0.258672582279677
756	 0.258831926161977
757	 0.258971943227682
758	 0.259120623428058
759	 0.259244961228218
760	 0.259321611497021
761	 0.259374845963257
762	 0.259452823096793
763	 0.259608168574972
764	 0.259728325195328
765	 0.259775939375795
766	 0.259797068818326
767	 0.259897182859882
768	 0.259987837761724
769	 0.26002952402795
770	 0.260124340023217
771	 0.260247556456407
772	 0.260347216502351
773	 0.260388734558308
774	 0.260432061951015
775	 0.260463108417805
776	 0.260490624779558
777	 0.260536862774246
778	 0.260624803034296
779	 0.26069766880718
780	 0.260741064034624
781	 0.260796814779922
782	 0.260868797271277
783	 0.260917152297312
784	 0.260929171233962
785	 0.260976113436276
786	 0.260976242939361
787	 0.260979009765683
788	 0.261030836978783
789	 0.260948788684625
790	 0.260973156629373
791	 0.261088626301751
792	 0.261111068894135
793	 0.261091756973011
794	 0.261091336451836
795	 0.261114468504014
796	 0.261093849713508
797	 0.261059000205129
798	 0.261039781254425
799	 0.261043572359939
800	 0.261030082924363
801	 0.260936484296761
802	 0.2608699377114
803	 0.260938640390199
804	 0.260968866435598
805	 0.260962194681989
806	 0.260918835293829
807	 0.260843137141935
808	 0.260776198078585
809	 0.260752797850612
810	 0.260755011136251
811	 0.2607111966668
812	 0.260762232206409
813	 0.260732731698409
814	 0.260564689876247
815	 0.260580802129576
816	 0.260638215799783
817	 0.260644285611198
818	 0.2605643146605
819	 0.260524249949029
820	 0.260507398047114
821	 0.260493754637198
822	 0.260468829557421
823	 0.260470108210165
824	 0.260463778723042
825	 0.260462191976186
826	 0.260511336218607
827	 0.260428522279346
828	 0.260348384348737
829	 0.260318446954703
830	 0.260168705216108
831	 0.260164026920819
832	 0.260211767207665
833	 0.260184798827298
834	 0.260108335524007
835	 0.260146698729357
836	 0.260169074928782
837	 0.260024590955308
838	 0.260008914843617
839	 0.260004656492275
840	 0.2599279781606
841	 0.259766644317075
842	 0.259761931924344
843	 0.259854103360287
844	 0.259908775918031
845	 0.259779100466477
846	 0.259692469494339
847	 0.259687869435477
848	 0.259727280514322
849	 0.259710274880707
850	 0.259641347698403
851	 0.259584307630804
852	 0.259589754733389
853	 0.259648020948089
854	 0.259607039459471
855	 0.259498460930762
856	 0.259421048891593
857	 0.259450870584725
858	 0.259479590005232
859	 0.259493845102639
860	 0.259513074610138
861	 0.259422223673029
862	 0.259478961647277
863	 0.259634469735126
864	 0.259629741772093
865	 0.259606874326183
866	 0.259639629144865
867	 0.259728667854617
868	 0.25979396709626
869	 0.259658214839976
870	 0.259589314469972
871	 0.25967281511512
872	 0.259612780516274
873	 0.25944644883995
874	 0.259497387256602
875	 0.259839161291226
876	 0.259892428593636
877	 0.259842661299517
878	 0.259856971605918
879	 0.259995672682572
880	 0.26000298585705
881	 0.25990018079545
882	 0.259881387941915
883	 0.260088505599599
884	 0.260189705909462
885	 0.260101127166652
886	 0.259989836865573
887	 0.260094273396713
888	 0.260299419556557
889	 0.26026859984553
890	 0.260144818274571
891	 0.260326527193007
892	 0.260465257270797
893	 0.260456941126314
894	 0.260411331973398
895	 0.260552874366213
896	 0.260498330122853
897	 0.260508434493366
898	 0.260667159117005
899	 0.26077929510182
900	 0.260920867161468
901	 0.261019151261453
902	 0.261065528628415
903	 0.261162006460999
904	 0.261263468498028
905	 0.261333415087084
906	 0.261401057512599
907	 0.261593120155789
908	 0.261625898585915
909	 0.261658412118484
910	 0.261805467989331
911	 0.261875281543249
912	 0.262055614678154
913	 0.262159685334485
914	 0.262076707446454
915	 0.262097429817503
916	 0.262314003822627
917	 0.262527964591522
918	 0.262610871746111
919	 0.262923671241824
920	 0.263083761851854
921	 0.263030773848153
922	 0.262910875763091
923	 0.26312883629202
924	 0.263292988863208
925	 0.263356281672651
926	 0.263434576290891
927	 0.263711260396267
928	 0.263996849703475
929	 0.264096623720261
930	 0.263987725400359
931	 0.264238915455289
932	 0.264343036231255
933	 0.264416840192712
934	 0.264717854173773
935	 0.264908795323765
936	 0.264779298754631
937	 0.264716160628726
938	 0.26512431768362
939	 0.265308763873071
940	 0.265411735271604
941	 0.265444833480392
942	 0.265435684526791
943	 0.265747700740484
944	 0.265924271505828
945	 0.265981016270794
946	 0.266141826808908
947	 0.26640538829747
948	 0.266585823521168
949	 0.266685417735909
950	 0.266808182589232
951	 0.267053785734013
952	 0.267070558969867
953	 0.267128669998697
954	 0.267542205622657
955	 0.267621625330753
956	 0.267483582494391
957	 0.267539296848242
958	 0.268019698428793
959	 0.268060011197765
960	 0.26810755671238
961	 0.26833112892723
962	 0.268698380317856
963	 0.268975013023752
964	 0.26897883692355
965	 0.269061236687495
966	 0.269450328180471
967	 0.269343789106877
968	 0.269392539308059
969	 0.269598898894736
970	 0.269839458412878
971	 0.270294275210915
972	 0.270120423445637
973	 0.270136613841136
974	 0.270942032841031
975	 0.271499547185076
976	 0.271252859783663
977	 0.271159340368921
978	 0.271758908649792
979	 0.272001794287575
980	 0.271725732555507
981	 0.271892396866526
982	 0.272648435423349
983	 0.272589870336589
984	 0.272853246898847
985	 0.273091426502462
986	 0.273182570527598
987	 0.273553151127317
988	 0.273590562095688
989	 0.273750211783005
990	 0.274215807638663
991	 0.274680969228751
992	 0.274606361147496
993	 0.274644715098402
994	 0.274965574400555
995	 0.275205727572046
996	 0.274951461374899
997	 0.275277845614366
998	 0.275980740509236
999	 0.276160240814213
1000	 0.275744727925883
1001	 0.257513989328831
1002	 0.257578387471509
1003	 0.257706307164482
1004	 0.257731295135848
1005	 0.257795473586623
1006	 0.258054425790823
1007	 0.258391454194713
1008	 0.258629311649469
1009	 0.258837940969765
1010	 0.259020111887833
1011	 0.259292191907128
1012	 0.259411626424397
1013	 0.2593689507283
1014	 0.259307651110283
1015	 0.259250652821347
1016	 0.259324670243842
1017	 0.259554212720034
1018	 0.259859022811267
1019	 0.260056502652459
1020	 0.260146587052329
1021	 0.260198397325747
1022	 0.260270572191926
1023	 0.260510341785984
1024	 0.260632027134374
1025	 0.260708155536024
1026	 0.260710189075658
1027	 0.260814772968816
1028	 0.26079198571518
1029	 0.260818919484173
1030	 0.261038982472875
1031	 0.261148464797721
1032	 0.261228829071611
1033	 0.261363006199812
1034	 0.261508910647748
1035	 0.261752232173566
1036	 0.261950873880766
1037	 0.262115549040794
1038	 0.262251062435262
1039	 0.262342592001121
1040	 0.262341394018587
1041	 0.262437989711724
1042	 0.262576034556417
1043	 0.262600158921106
1044	 0.262569823406423
1045	 0.262611605802646
1046	 0.262736641070615
1047	 0.262954433221645
1048	 0.263255040384102
1049	 0.263442554759286
1050	 0.263582930896206
1051	 0.263742598680729
1052	 0.263855820437948
1053	 0.263969033923297
1054	 0.264134271197773
1055	 0.264207587599508
1056	 0.264216761778393
1057	 0.264266816856731
1058	 0.264351940017269
1059	 0.264513957999848
1060	 0.264660765156023
1061	 0.264847234582534
1062	 0.265125011907639
1063	 0.265341294691385
1064	 0.265501700919221
1065	 0.265686440481206
1066	 0.265920162741415
1067	 0.266070837609568
1068	 0.266206140863441
1069	 0.266382148042124
1070	 0.266527759787996
1071	 0.26656441379996
1072	 0.266701318689655
1073	 0.266951718998633
1074	 0.267138349090386
1075	 0.267362815810952
1076	 0.267531395564514
1077	 0.267672020880235
1078	 0.267785538895015
1079	 0.267842189129275
1080	 0.267977330933277
1081	 0.268164723098883
1082	 0.268361886821113
1083	 0.268529081229025
1084	 0.268729734987821
1085	 0.268896106482434
1086	 0.268995011678628
1087	 0.269117627259955
1088	 0.26925951808711
1089	 0.269410681373896
1090	 0.269502744824651
1091	 0.269692347564082
1092	 0.269880820170156
1093	 0.26998336860563
1094	 0.270145154198748
1095	 0.270242983759385
1096	 0.270371317305856
1097	 0.270604709580462
1098	 0.270755793785139
1099	 0.270921272017511
1100	 0.271051402795034
1101	 0.271095689800552
1102	 0.27116343605129
1103	 0.271258054825574
1104	 0.271278732848719
1105	 0.27131939316684
1106	 0.271453580721586
1107	 0.271563183335552
1108	 0.271673161515348
1109	 0.271811814375404
1110	 0.271905895690313
1111	 0.271961775445757
1112	 0.272124685626391
1113	 0.27224589811519
1114	 0.272370147198843
1115	 0.27244296988534
1116	 0.272483001482109
1117	 0.272539060821937
1118	 0.272527863897406
1119	 0.272599231938443
1120	 0.272746938919717
1121	 0.272866745276522
1122	 0.272945206986021
1123	 0.273060782433432
1124	 0.273151914646934
1125	 0.273239609095288
1126	 0.273322880008501
1127	 0.273415113621846
1128	 0.27351465540171
1129	 0.273593637557278
1130	 0.273691133894785
1131	 0.273824687458728
1132	 0.273927669652704
1133	 0.274014066081013
1134	 0.274102202520383
1135	 0.274218668817126
1136	 0.27426843989594
1137	 0.274223526638455
1138	 0.274267583000789
1139	 0.274312986952453
1140	 0.274410034355318
1141	 0.274459701936161
1142	 0.274545054314793
1143	 0.274619619685173
1144	 0.274599799849965
1145	 0.274631798154159
1146	 0.274710123242541
1147	 0.274764815634001
1148	 0.274791760277575
1149	 0.274850376090747
1150	 0.274933530799381
1151	 0.274993972650381
1152	 0.275046601996813
1153	 0.27509595974248
1154	 0.275132999784176
1155	 0.275206292691713
1156	 0.275298315467368
1157	 0.275375542578817
1158	 0.275530050630287
1159	 0.275620530918239
1160	 0.275689944198708
1161	 0.275808863114873
1162	 0.275909783635515
1163	 0.275985856158684
1164	 0.27609725242444
1165	 0.276238326479279
1166	 0.276366109677223
1167	 0.276474710079161
1168	 0.276619676076453
1169	 0.27679324883064
1170	 0.276953811747347
1171	 0.277164230292663
1172	 0.277317511393836
1173	 0.277411371328046
1174	 0.277534229429259
1175	 0.277660344961619
1176	 0.277746186745725
1177	 0.277880980293872
1178	 0.278068765289487
1179	 0.278193751667054
1180	 0.278355623547451
1181	 0.278479670688794
1182	 0.278563974952772
1183	 0.278679090759951
1184	 0.278801964833808
1185	 0.27891620682178
1186	 0.279049466104866
1187	 0.279163942096119
1188	 0.279267398285515
1189	 0.279356037529265
1190	 0.279417094865569
1191	 0.279501887747018
1192	 0.279568855876914
1193	 0.279664970089784
1194	 0.2797995660102
1195	 0.279928426112063
1196	 0.280034678647236
1197	 0.280169954722375
1198	 0.280280431361913
1199	 0.280380667503858
1200	 0.280462772968541
1201	 0.280524858869817
1202	 0.28060806647274
1203	 0.280683102577192
1204	 0.280766956458162
1205	 0.280864880631607
1206	 0.280963166445775
1207	 0.281061507551888
1208	 0.281154072547959
1209	 0.281260008622352
1210	 0.281358171219856
1211	 0.281452854495409
1212	 0.281528607567911
1213	 0.281592052520939
1214	 0.281650666862467
1215	 0.281731744293926
1216	 0.28179403634784
1217	 0.281866134871098
1218	 0.281945986758715
1219	 0.282054443080682
1220	 0.282182753499311
1221	 0.282278930415339
1222	 0.282445096980615
1223	 0.282480625497537
1224	 0.28236047896879
1225	 0.282373279101437
1226	 0.282382340131933
1227	 0.282414976521043
1228	 0.282558233587232
1229	 0.282633636850373
1230	 0.282650477144864
1231	 0.282695722940801
1232	 0.282732628691088
1233	 0.282790504772097
1234	 0.282846867061026
1235	 0.282942152636961
1236	 0.283048803471256
1237	 0.283200748114978
1238	 0.283278099510286
1239	 0.283331692133365
1240	 0.283416984862718
1241	 0.28347688241176
1242	 0.283544973337279
1243	 0.283656110096697
1244	 0.283733335049352
1245	 0.283780133414395
1246	 0.283823495002576
1247	 0.283842033942658
1248	 0.283905145312322
1249	 0.283969418776728
1250	 0.284043102680506
1251	 0.284182427279447
1252	 0.284276735035158
1253	 0.284353209212871
1254	 0.284409252543619
1255	 0.284447442141866
1256	 0.284455336906974
1257	 0.284502085688149
1258	 0.28454288394916
1259	 0.284592127063749
1260	 0.284664057245729
1261	 0.284732635633956
1262	 0.284811195356608
1263	 0.284851527473277
1264	 0.284884866352596
1265	 0.284917856487071
1266	 0.284900549905878
1267	 0.284928853280962
1268	 0.285001608266849
1269	 0.285045940714499
1270	 0.285081529227259
1271	 0.285125203136371
1272	 0.28517434212402
1273	 0.285209044986175
1274	 0.285236290838822
1275	 0.28527228558135
1276	 0.285296795514677
1277	 0.285326690751095
1278	 0.285362383318416
1279	 0.285421381082335
1280	 0.285441636712663
1281	 0.285441242472977
1282	 0.285458722444646
1283	 0.285451653705864
1284	 0.285490899447831
1285	 0.285575350032911
1286	 0.285618823437623
1287	 0.285676343629994
1288	 0.285703952235209
1289	 0.285687010300772
1290	 0.285696292619612
1291	 0.285705463599215
1292	 0.285719777306926
1293	 0.28573798001931
1294	 0.285762981319718
1295	 0.28580752983113
1296	 0.285829698951824
1297	 0.285843706869955
1298	 0.285861720443232
1299	 0.285884215117914
1300	 0.285859066066699
1301	 0.285887439006993
1302	 0.285949866707996
1303	 0.285970400453648
1304	 0.285991591898033
1305	 0.286008031439131
1306	 0.285990563043761
1307	 0.286001303728605
1308	 0.286032250008095
1309	 0.286055271174092
1310	 0.28607552208468
1311	 0.286106620828179
1312	 0.286155439306771
1313	 0.286179002678979
1314	 0.2862208564786
1315	 0.286211812156771
1316	 0.286153575071378
1317	 0.286107339801891
1318	 0.286027162198632
1319	 0.285968288379811
1320	 0.285916447442837
1321	 0.285879516771112
1322	 0.285859649968586
1323	 0.285828727171558
1324	 0.285810378107431
1325	 0.285785904722539
1326	 0.285712307302805
1327	 0.285674271002756
1328	 0.28562921870292
1329	 0.285585215424327
1330	 0.285523453087674
1331	 0.285491678414057
1332	 0.2853753566463
1333	 0.285187044366554
1334	 0.285051598366451
1335	 0.284871202546301
1336	 0.284759978323517
1337	 0.284727610127503
1338	 0.284636225991796
1339	 0.28454631315368
1340	 0.284437228960428
1341	 0.284286222707664
1342	 0.284170043769731
1343	 0.284092306554484
1344	 0.283963229479202
1345	 0.283819323681958
1346	 0.283661810216372
1347	 0.283452060964954
1348	 0.283268413194928
1349	 0.283088423945933
1350	 0.28293001874503
1351	 0.28276561245534
1352	 0.282586310196233
1353	 0.282399799091482
1354	 0.282207969187007
1355	 0.28202159716785
1356	 0.281822729775808
1357	 0.281651435269911
1358	 0.281501582237796
1359	 0.28133198659898
1360	 0.281171594197761
1361	 0.281001071405527
1362	 0.280803377055077
1363	 0.280637010422235
1364	 0.28047991059545
1365	 0.280334292404644
1366	 0.280222179839953
1367	 0.280088580434172
1368	 0.27996208077383
1369	 0.279813229397274
1370	 0.279667568887009
1371	 0.279470437241095
1372	 0.279276837232842
1373	 0.279013029886393
1374	 0.278693796039252
1375	 0.278339345542083
1376	 0.277951050914562
1377	 0.277485962337982
1378	 0.27699607772254
1379	 0.27646223336311
1380	 0.275890894780221
1381	 0.275328341866699
1382	 0.274728448533677
1383	 0.274112700359369
1384	 0.273482273952323
1385	 0.272807635254588
1386	 0.272177093970641
1387	 0.271562371832498
1388	 0.270933348536597
1389	 0.270308073619631
1390	 0.269696128475362
1391	 0.269068860356309
1392	 0.268467630621258
1393	 0.267901079934972
1394	 0.267311870662724
1395	 0.266730816088823
1396	 0.266116269935551
1397	 0.265501290294161
1398	 0.264837104422495
1399	 0.264150453778282
1400	 0.263421590054869
1401	 0.262660078926949
1402	 0.261852464189812
1403	 0.260961851051644
1404	 0.260102076179876
1405	 0.259219793307323
1406	 0.258343388053076
1407	 0.257466568740308
1408	 0.256598569101087
1409	 0.255782525142956
1410	 0.254965854006885
1411	 0.254167119095892
1412	 0.253519375924843
1413	 0.252965501101135
1414	 0.252483069663801
1415	 0.252178007005982
1416	 0.251978789912115
1417	 0.251831727896005
1418	 0.251786457241996
1419	 0.251730109175241
1420	 0.251745879166525
1421	 0.251739613432285
1422	 0.251725804955465
1423	 0.25175960396653
1424	 0.251834140799473
1425	 0.25189757868725
1426	 0.251979353718813
1427	 0.25206505812782
1428	 0.252146725825974
1429	 0.252254679301895
1430	 0.252387270471032
1431	 0.252516049546497
1432	 0.25263631583926
1433	 0.252796492941572
1434	 0.252981037123265
1435	 0.253171567527775
1436	 0.253402375614167
1437	 0.253621572271392
1438	 0.253840817306795
1439	 0.254054063385357
1440	 0.254266092452225
1441	 0.25448030478838
1442	 0.254680862989464
1443	 0.254901317864197
1444	 0.255141143534137
1445	 0.255380225181553
1446	 0.25560645513464
1447	 0.255826067699421
1448	 0.256028220765442
1449	 0.256191603767309
1450	 0.256370461759063
1451	 0.256544212187017
1452	 0.2566852889432
1453	 0.256832412074193
1454	 0.256962481619549
1455	 0.257073408132716
1456	 0.257180721125523
1457	 0.257286844701517
1458	 0.257380449869564
1459	 0.257452712679152
1460	 0.257534884185197
1461	 0.257615465844524
1462	 0.257696776029449
1463	 0.257771362820142
1464	 0.257866512082372
1465	 0.257964100405769
1466	 0.258079996344841
1467	 0.258207891334399
1468	 0.258355114779355
1469	 0.258522243325785
1470	 0.25869372864127
1471	 0.25887954596541
1472	 0.259078088308024
1473	 0.259273105704741
1474	 0.259501473791348
1475	 0.25977323353684
1476	 0.2600268745406
1477	 0.260296572161549
1478	 0.260555524308348
1479	 0.260794561254467
1480	 0.26104704970761
1481	 0.261310011430536
1482	 0.261573836072685
1483	 0.261857771057599
1484	 0.262114621616518
1485	 0.262356135183743
1486	 0.262593746839446
1487	 0.262811982456959
1488	 0.263035207335667
1489	 0.263254291068225
1490	 0.263481871091562
1491	 0.263720068373261
1492	 0.263928314132224
1493	 0.26419181707856
1494	 0.264448874711012
1495	 0.264689014134292
1496	 0.264945707963189
1497	 0.265149300271756
1498	 0.26536185744046
1499	 0.265564631923749
1500	 0.265729232795616
1501	 0.265909138440528
1502	 0.26608649131287
1503	 0.266285638410075
1504	 0.26650909488046
1505	 0.26669171138484
1506	 0.266847303564375
1507	 0.266996790003656
1508	 0.2670960090399
1509	 0.267238699805275
1510	 0.267409048032961
1511	 0.267548833911556
1512	 0.267683204675439
1513	 0.267818395661982
1514	 0.2679307308036
1515	 0.268070869495494
1516	 0.268232566991316
1517	 0.268379140326424
1518	 0.268541713666473
1519	 0.268665470402623
1520	 0.268761576022185
1521	 0.268869137715608
1522	 0.268949848292958
1523	 0.26906350403063
1524	 0.269208142485009
1525	 0.269316544787162
1526	 0.269422141481041
1527	 0.269526550177547
1528	 0.26960597136668
1529	 0.269702041163432
1530	 0.269820094820881
1531	 0.269910789988084
1532	 0.269976559014996
1533	 0.270064914158231
1534	 0.270162902756288
1535	 0.270244944455312
1536	 0.270340978113464
1537	 0.270416046745348
1538	 0.270456366649806
1539	 0.270514113686909
1540	 0.270557394300311
1541	 0.270633222691127
1542	 0.270759532229944
1543	 0.270827381097988
1544	 0.270893171505862
1545	 0.270936087950705
1546	 0.27089547992214
1547	 0.270929148159598
1548	 0.271008269445778
1549	 0.271065803160362
1550	 0.271149997875342
1551	 0.271212174984666
1552	 0.271251102874937
1553	 0.271293558307576
1554	 0.271336772239091
1555	 0.27137923862005
1556	 0.271411425961781
1557	 0.271448489302242
1558	 0.27149177674256
1559	 0.271530263551832
1560	 0.271562315154079
1561	 0.271601260490383
1562	 0.27163304026741
1563	 0.271683257173606
1564	 0.27178053708444
1565	 0.271820988424902
1566	 0.271825016032258
1567	 0.271848650948187
1568	 0.271835955449575
1569	 0.271848708841425
1570	 0.271895083220396
1571	 0.271940379368687
1572	 0.271998574630499
1573	 0.272037233595258
1574	 0.272067906813202
1575	 0.27210733530261
1576	 0.272127696349735
1577	 0.272156980579139
1578	 0.272231091785144
1579	 0.272318551522808
1580	 0.272385212143993
1581	 0.272437105788916
1582	 0.272436866974315
1583	 0.272430620885265
1584	 0.272486117839164
1585	 0.272546354556964
1586	 0.272624785718665
1587	 0.272715590602383
1588	 0.272754264161393
1589	 0.272741417422909
1590	 0.272696630603013
1591	 0.272682825682444
1592	 0.272705083807646
1593	 0.272757924949547
1594	 0.272841954887865
1595	 0.272896518098389
1596	 0.272923432982194
1597	 0.272945876557112
1598	 0.273003613847901
1599	 0.273068620459373
1600	 0.273095282599365
1601	 0.273130366063414
1602	 0.273153876104638
1603	 0.273174207372528
1604	 0.273230001573148
1605	 0.273278319610782
1606	 0.273272762221084
1607	 0.273290521692076
1608	 0.273352023081472
1609	 0.273385159388218
1610	 0.273445398995487
1611	 0.273496082576835
1612	 0.273513194189341
1613	 0.273548762578255
1614	 0.273598034015013
1615	 0.273681509481822
1616	 0.273753401474928
1617	 0.273780985431554
1618	 0.273792757383227
1619	 0.273764871870877
1620	 0.273787610328931
1621	 0.273812430348543
1622	 0.27382922632492
1623	 0.273871934444497
1624	 0.273887860500994
1625	 0.273866530306802
1626	 0.273891352097998
1627	 0.273945903640665
1628	 0.273973863394722
1629	 0.273987191573681
1630	 0.273990219377901
1631	 0.273984130785351
1632	 0.274025416489658
1633	 0.274066435006747
1634	 0.274084862821012
1635	 0.27413990510506
1636	 0.274180019697327
1637	 0.27421839735646
1638	 0.274275707066771
1639	 0.274309151215584
1640	 0.274317326877799
1641	 0.274324299155168
1642	 0.274306095822502
1643	 0.274312737669004
1644	 0.274343802643662
1645	 0.274355298268628
1646	 0.274373647897688
1647	 0.274387281699602
1648	 0.274362218834149
1649	 0.274367186587513
1650	 0.274413967149658
1651	 0.274431549598447
1652	 0.274432655327157
1653	 0.274453023306278
1654	 0.274468947765031
1655	 0.274482372014298
1656	 0.274516990705178
1657	 0.274544711489252
1658	 0.274531358729924
1659	 0.274564011071645
1660	 0.274671791621015
1661	 0.274708837576787
1662	 0.274714943543277
1663	 0.274739785394599
1664	 0.274723076129783
1665	 0.274718342029736
1666	 0.274777812047889
1667	 0.274775666526726
1668	 0.274696886298766
1669	 0.274662839965106
1670	 0.274617546930991
1671	 0.27459373075625
1672	 0.274612161501746
1673	 0.274618975910801
1674	 0.274621222238501
1675	 0.274631366299765
1676	 0.274658518419471
1677	 0.274669195404019
1678	 0.274690915569657
1679	 0.274682502093865
1680	 0.274636717342781
1681	 0.274604939619734
1682	 0.274557477854137
1683	 0.274520460483934
1684	 0.274483571377552
1685	 0.274472579696487
1686	 0.27448381144326
1687	 0.274481838412922
1688	 0.274501604720032
1689	 0.274500245195413
1690	 0.274472811581355
1691	 0.274457247443799
1692	 0.274453624505635
1693	 0.274429838109183
1694	 0.274398035224738
1695	 0.274357741698799
1696	 0.27429977181454
1697	 0.274243541280563
1698	 0.274184142116615
1699	 0.274124638304253
1700	 0.274047646338817
1701	 0.273999238623877
1702	 0.273975838872884
1703	 0.273928922325368
1704	 0.27387260672803
1705	 0.27384900385952
1706	 0.273824232998491
1707	 0.273802745064042
1708	 0.273836037913721
1709	 0.273808321392948
1710	 0.273731256511212
1711	 0.273683081607564
1712	 0.273635625726687
1713	 0.273563334297049
1714	 0.273485975252848
1715	 0.273426062444237
1716	 0.273359784909172
1717	 0.273269462656888
1718	 0.273184062228079
1719	 0.2730467745741
1720	 0.272932894119598
1721	 0.27283950352601
1722	 0.272773396947205
1723	 0.272689421723764
1724	 0.272587027854794
1725	 0.272454368322649
1726	 0.272308204190768
1727	 0.27220961072381
1728	 0.272067188541497
1729	 0.271890611838292
1730	 0.271741029955439
1731	 0.27159535313829
1732	 0.271473685659331
1733	 0.271391745906023
1734	 0.271308888934854
1735	 0.271167560993469
1736	 0.271061781586302
1737	 0.271012832562612
1738	 0.270909160429969
1739	 0.270769368819927
1740	 0.27065305271576
1741	 0.270495452865395
1742	 0.270377718513664
1743	 0.270328440068019
1744	 0.270239903359045
1745	 0.270150299330212
1746	 0.270047164926235
1747	 0.269906398147404
1748	 0.269798777907354
1749	 0.269700815190627
1750	 0.26958394069564
1751	 0.269490192960414
1752	 0.269356461711822
1753	 0.269170630359882
1754	 0.269037440697953
1755	 0.268921693571551
1756	 0.268800327481381
1757	 0.268696168586613
1758	 0.268588099918387
1759	 0.268462310113746
1760	 0.268378383611864
1761	 0.2682955503969
1762	 0.268146977701791
1763	 0.267998993024749
1764	 0.26784282829602
1765	 0.26770559444905
1766	 0.267611202934608
1767	 0.267501488588699
1768	 0.267379907380235
1769	 0.267275919178155
1770	 0.267199941600642
1771	 0.267128989460339
1772	 0.267090922800753
1773	 0.266994148662377
1774	 0.266847474048278
1775	 0.266774317370839
1776	 0.266642790481431
1777	 0.266507499169801
1778	 0.266480752108933
1779	 0.266401621439699
1780	 0.266335599061769
1781	 0.266283248797182
1782	 0.266206241880017
1783	 0.266132322777095
1784	 0.266055844269287
1785	 0.266039444094125
1786	 0.266065183534488
1787	 0.266034069010571
1788	 0.266017593552971
1789	 0.26598755239005
1790	 0.265900975158522
1791	 0.265844413042731
1792	 0.265834048394853
1793	 0.265820562066914
1794	 0.265765907038472
1795	 0.265777611569167
1796	 0.265774652701223
1797	 0.265748441095635
1798	 0.265707345536124
1799	 0.265665659974867
1800	 0.26559678489035
1801	 0.265381208830467
1802	 0.265372648829622
1803	 0.265491928737257
1804	 0.265457751989792
1805	 0.26557238390521
1806	 0.265589742394582
1807	 0.265401093137442
1808	 0.265415067375567
1809	 0.265518489265503
1810	 0.265525682314314
1811	 0.265504354022304
1812	 0.265485248391269
1813	 0.265360429072584
1814	 0.265306174922259
1815	 0.265335188060816
1816	 0.265313326332737
1817	 0.265281579568324
1818	 0.265220761203266
1819	 0.265163875297278
1820	 0.265063763173114
1821	 0.264964917685217
1822	 0.26492149858842
1823	 0.264877878032525
1824	 0.264794255095933
1825	 0.264757945219679
1826	 0.264806281002037
1827	 0.26470792521609
1828	 0.264555648840893
1829	 0.264513309210318
1830	 0.264345075073221
1831	 0.260551666374006
1832	 0.260586635901845
1833	 0.26062927376747
1834	 0.260660090739061
1835	 0.260695578602553
1836	 0.260711039104658
1837	 0.260655610661858
1838	 0.260681694509483
1839	 0.260750488238254
1840	 0.260794147704148
1841	 0.260855782967857
1842	 0.260952393246259
1843	 0.260922920453025
1844	 0.2607535919077
1845	 0.260674913148455
1846	 0.260582517104417
1847	 0.260506470473831
1848	 0.260450343315603
1849	 0.260402624725682
1850	 0.260415258007079
1851	 0.260338766270613
1852	 0.26023678725127
1853	 0.260093608114673
1854	 0.259930684026504
1855	 0.259652946404124
1856	 0.25947901122554
1857	 0.259395675043866
1858	 0.259230515011096
1859	 0.259116074153707
1860	 0.258874436313171
1861	 0.258404615635334
1862	 0.257882409568182
1863	 0.257430726606151
1864	 0.256919123797842
1865	 0.256404989857721
1866	 0.256038485237017
1867	 0.255467876996114
1868	 0.254743588409767
1869	 0.254013894223276
1870	 0.253310587730687
1871	 0.252507058339912
1872	 0.251634627900404
1873	 0.250704092308776
1874	 0.249639275130931
1875	 0.248502461637398
1876	 0.247383688577668
1877	 0.246204458042303
1878	 0.244986410264153
1879	 0.243740828861231
1880	 0.242445848663818
1881	 0.241084382539916
1882	 0.23961423266164
1883	 0.237968051710887
1884	 0.236302965964478
1885	 0.234444820056558
1886	 0.232388289197245
1887	 0.230330276246127
1888	 0.228113157408379
1889	 0.225832657018989
1890	 0.223455012938096
1891	 0.221102268946207
1892	 0.218552730354707
1893	 0.215961382998435
1894	 0.213415144718947
1895	 0.210855557914097
1896	 0.208394446944857
1897	 0.205878753006751
1898	 0.203317229132494
1899	 0.200848178450209
1900	 0.198512637206572
1901	 0.196204534472159
1902	 0.194153709564737
1903	 0.192314460858511
1904	 0.190555556394368
1905	 0.188945002565026
1906	 0.187429542878123
1907	 0.186082242521682
1908	 0.184891663294745
1909	 0.183820635729556
1910	 0.182926186364451
1911	 0.182153947293325
1912	 0.181492877663971
1913	 0.181000009877035
1914	 0.180669510658005
1915	 0.180404908619345
1916	 0.180269948346211
1917	 0.180121158935036
1918	 0.179989676160422
1919	 0.180075121287759
1920	 0.180183372245734
1921	 0.180275598880001
1922	 0.180474647242081
1923	 0.180686751256799
1924	 0.180883682455169
1925	 0.181089714995801
1926	 0.181408106988604
1927	 0.1818005596293
1928	 0.182168363588898
1929	 0.182517374149272
1930	 0.182900326125434
1931	 0.183242038909678
1932	 0.183566937643426
1933	 0.183882500573537
1934	 0.184207872212565
1935	 0.184535046672319
1936	 0.184870189642428
1937	 0.185204487919532
1938	 0.185593108772986
1939	 0.186059608940557
1940	 0.186542316243906
1941	 0.186999766394117
1942	 0.187496935247689
1943	 0.187941655801409
1944	 0.188369083898559
1945	 0.188822712848121
1946	 0.18926728435113
1947	 0.18974335209429
1948	 0.190258045683429
1949	 0.190763616254823
1950	 0.191223724453965
1951	 0.191686379629295
1952	 0.192218255943547
1953	 0.19274281257217
1954	 0.193303162119284
1955	 0.193932321267963
1956	 0.194398219980378
1957	 0.194865784798481
1958	 0.195370835140443
1959	 0.195854629687932
1960	 0.196374204065902
1961	 0.196940833369309
1962	 0.197494765713496
1963	 0.198128413435599
1964	 0.198765889454331
1965	 0.199383484581679
1966	 0.199993773616162
1967	 0.20044088366043
1968	 0.20084705675665
1969	 0.20136295384044
1970	 0.201913483121553
1971	 0.202456512579458
1972	 0.203106789962681
1973	 0.203661898634073
1974	 0.204159162761473
1975	 0.204652803761138
1976	 0.20509268541053
1977	 0.205611366458957
1978	 0.206181439129314
1979	 0.206763699215788
1980	 0.20739827512653
1981	 0.207935775637941
1982	 0.208510909660688
1983	 0.209085098389567
1984	 0.209648495873245
1985	 0.210208221711921
1986	 0.21079701505744
1987	 0.211394350786567
1988	 0.211916453556555
1989	 0.2125620893711
1990	 0.213257001896456
1991	 0.213932771823911
1992	 0.214610245975138
1993	 0.215212417458038
1994	 0.215810621530642
1995	 0.216393774848251
1996	 0.216965718000047
1997	 0.217514591129354
1998	 0.217971891801392
1999	 0.218533165108843
2000	 0.219148758829647
2001	 0.219731442935545
2002	 0.220319502779509
2003	 0.220989272720242
2004	 0.22158619423183
2005	 0.222139584312291
2006	 0.222683721086212
2007	 0.223250864947692
2008	 0.223817145007017
2009	 0.224379441728925
2010	 0.224891997688332
2011	 0.225396506166429
2012	 0.225892331810954
2013	 0.226316092226166
2014	 0.226809368849933
2015	 0.227364572083144
2016	 0.227881181430085
2017	 0.228399714038017
2018	 0.228835450137175
2019	 0.229268166790965
2020	 0.229683130665044
2021	 0.230065956733032
2022	 0.230412742591142
2023	 0.230788328989159
2024	 0.23113781842069
2025	 0.231518668989188
2026	 0.231915453331616
2027	 0.232329057197574
2028	 0.232795009753685
2029	 0.233174063984314
2030	 0.233520089138928
2031	 0.233915546114796
2032	 0.234212110005741
2033	 0.234587737860907
2034	 0.23501933537731
2035	 0.235409845600338
2036	 0.235788831879417
2037	 0.236150010836462
2038	 0.236474390122144
2039	 0.236759621595209
2040	 0.237095569400725
2041	 0.237451372696194
2042	 0.237781009627058
2043	 0.238155283445651
2044	 0.238449603565526
2045	 0.238672068720568
2046	 0.238859167152036
2047	 0.239087982884267
2048	 0.239300837862513
2049	 0.239493594914008
2050	 0.239791315916644
2051	 0.240057600061272
2052	 0.240323488097786
2053	 0.240585990261647
2054	 0.240834048536349
2055	 0.24111189223252
2056	 0.241444738010311
2057	 0.241704233370522
2058	 0.24189414298726
2059	 0.242212271649712
2060	 0.242516411581857
2061	 0.242731301728382
2062	 0.243079170027529
2063	 0.243391773937196
2064	 0.243551020439932
2065	 0.243814337434715
2066	 0.2440573258965
2067	 0.244280444634913
2068	 0.244494222494122
2069	 0.244741712193144
2070	 0.244947903719175
2071	 0.245081005852606
2072	 0.245304490936474
2073	 0.245617586644301
2074	 0.245821427645993
2075	 0.245981509897119
2076	 0.246166564395405
2077	 0.246320912268117
2078	 0.246530731654715
2079	 0.246866494731802
2080	 0.247256458490359
2081	 0.247540102717125
2082	 0.247773758152326
2083	 0.248037624935911
2084	 0.248263021423641
2085	 0.248487794369524
2086	 0.248791414368999
2087	 0.248983433660313
2088	 0.249057532255994
2089	 0.24918925488929
2090	 0.249225836807428
2091	 0.249388776418291
2092	 0.24967838391133
2093	 0.249936227838978
2094	 0.250117547302399
2095	 0.250344791722837
2096	 0.25045811808434
2097	 0.25062123023559
2098	 0.250823785659675
2099	 0.251135401005053
2100	 0.251323396530211
2101	 0.251441338506475
2102	 0.251624760236388
2103	 0.251816268130425
2104	 0.251982079063835
2105	 0.252197862313689
2106	 0.252370478282131
2107	 0.252449542342153
2108	 0.252578083144674
2109	 0.25272329899924
2110	 0.252880590132101
2111	 0.253047521553485
2112	 0.253213023597836
2113	 0.253437969787166
2114	 0.253626517780942
2115	 0.253797106442077
2116	 0.253935739223552
2117	 0.254148621953188
2118	 0.254390624822319
2119	 0.25459032684972
2120	 0.254819249600818
2121	 0.255046452433795
2122	 0.255249279590756
2123	 0.255416381877909
2124	 0.255636410329114
2125	 0.255763299394619
2126	 0.255778606178866
2127	 0.255791982429611
2128	 0.255905033009179
2129	 0.255967897020228
2130	 0.256027620512678
2131	 0.256239113584664
2132	 0.256386552860249
2133	 0.256543031114179
2134	 0.256655389096246
2135	 0.256797431485786
2136	 0.256816056893336
2137	 0.256744581912451
2138	 0.256647448129226
2139	 0.256449114797027
2140	 0.256316067692493
2141	 0.256156652206038
2142	 0.256037430513075
2143	 0.255940703713548
2144	 0.25588370299636
2145	 0.255911060825885
2146	 0.255845873135037
2147	 0.255789366405463
2148	 0.255715563645071
2149	 0.255479300761417
2150	 0.255169763642989
2151	 0.254888557714199
2152	 0.254608829480735
2153	 0.254348976294952
2154	 0.254141703738509
2155	 0.253887977297442
2156	 0.253571147595168
2157	 0.253353732656933
2158	 0.253192325978335
2159	 0.252969633703759
2160	 0.252745737275617
2161	 0.252579568371941
2162	 0.252425403089618
2163	 0.252237993678965
2164	 0.252138054980996
2165	 0.251965185832167
2166	 0.251632530309017
2167	 0.251404722628401
2168	 0.251250191792255
2169	 0.251047863647048
2170	 0.250906005748479
2171	 0.25077985498956
2172	 0.250547002452318
2173	 0.250422297174815
2174	 0.250286169494538
2175	 0.250161568002352
2176	 0.250007146103
2177	 0.249870137534847
2178	 0.249705004070653
2179	 0.249512591876577
2180	 0.249316149058193
2181	 0.249168172220377
2182	 0.2489082539454
2183	 0.248533479820878
2184	 0.248215384556654
2185	 0.247837057123328
2186	 0.247516516137885
2187	 0.247251237693791
2188	 0.246978909689358
2189	 0.246685632015245
2190	 0.246471820644453
2191	 0.246255481083384
2192	 0.246043811661634
2193	 0.245825744910418
2194	 0.24545987377841
2195	 0.245094386327696
2196	 0.244704324049946
2197	 0.244271807698619
2198	 0.243787921244794
2199	 0.243383935431755
2200	 0.242944673261221
2201	 0.242542856957703
2202	 0.242231937834192
2203	 0.241839015863289
2204	 0.241381786199565
2205	 0.241031272116781
2206	 0.24065580863144
2207	 0.240372573053904
2208	 0.240117737233129
2209	 0.239998462982588
2210	 0.23993016346128
2211	 0.24004894947036
2212	 0.240392467952199
2213	 0.240756819116806
2214	 0.241317772885432
2215	 0.241791519567553
2216	 0.242304982736365
2217	 0.242745717135925
2218	 0.243098518943131
2219	 0.243544705788399
2220	 0.244067844332813
2221	 0.244448018537249
2222	 0.24478952941167
2223	 0.244908417304353
2224	 0.244937823512438
2225	 0.24469201245668
2226	 0.244675776912913
2227	 0.244662702431968
2228	 0.24465793220997
2229	 0.24478390236648
2230	 0.244734064971872
2231	 0.244527615123325
2232	 0.244468783589274
2233	 0.244361748005633
2234	 0.244319844453724
2235	 0.244479950984968
2236	 0.244452541205485
2237	 0.244374905334114
2238	 0.24425837240149
2239	 0.243956037883286
2240	 0.243775312345071
2241	 0.243635521379504
2242	 0.243503608451211
2243	 0.243412854316604
2244	 0.243359390906809
2245	 0.243353969449722
2246	 0.243268059349747
2247	 0.243328150607361
2248	 0.243373640712929
2249	 0.243303560664432
2250	 0.243329815063389
2251	 0.243237518864055
2252	 0.243135011535821
2253	 0.242962718323247
2254	 0.242736535107851
2255	 0.242612733679862
2256	 0.242421132443487
2257	 0.242354029225127
2258	 0.242423816941996
2259	 0.242415598474449
2260	 0.242474550371026
2261	 0.242396688629526
2262	 0.242252307835773
2263	 0.242105506755454
2264	 0.241803080151414
2265	 0.241675240832447
2266	 0.241664368709055
2267	 0.241593380994628
2268	 0.241644111818926
2269	 0.241499127174626
2270	 0.24111721800351
2271	 0.240938301709486
2272	 0.240796960076028
2273	 0.240630846399693
2274	 0.240640685834
2275	 0.240474212443462
2276	 0.24015945340606
2277	 0.239850571970864
2278	 0.239425891729266
2279	 0.239133675764714
2280	 0.2388430753904
2281	 0.238601347296323
2282	 0.238542113807766
2283	 0.238340667522739
2284	 0.2380609879429
2285	 0.237717171684918
2286	 0.237145429047968
2287	 0.236634600286262
2288	 0.236374581543696
2289	 0.236266007250696
2290	 0.236204902610596
2291	 0.236141772416609
2292	 0.2358155824664
2293	 0.235309432768408
2294	 0.234875751563422
2295	 0.23465333527063
2296	 0.234585310240345
2297	 0.234551266673503
2298	 0.234460038863316
2299	 0.234318327408391
2300	 0.234087699077177
2301	 0.233762796359386
2302	 0.233532744996756
2303	 0.23330021612779
2304	 0.233106171931297
2305	 0.233053680235645
2306	 0.232773111145577
2307	 0.232414847710021
2308	 0.232120773588706
2309	 0.231669788816465
2310	 0.231403061950832
2311	 0.231276549779153
2312	 0.231051034883747
2313	 0.230719267461593
2314	 0.230594676196277
2315	 0.230617067905583
2316	 0.230620360703784
2317	 0.230741760346241
2318	 0.230864230141841
2319	 0.230958097714318
2320	 0.231079733141496
2321	 0.231400031091135
2322	 0.231481164601982
2323	 0.231347494099261
2324	 0.231302939321945
2325	 0.231175021726662
2326	 0.231081679226374
2327	 0.231097536316603
2328	 0.231069660368527
2329	 0.231001749130386
2330	 0.230912814599844
2331	 0.230790121716153
2332	 0.230687259457078
2333	 0.23058683451109
2334	 0.230451871766463
2335	 0.230315193875696
2336	 0.230154510780405
2337	 0.229907813769136
2338	 0.229682734614364
2339	 0.22956338228822
2340	 0.229373311670448
2341	 0.229083445468553
2342	 0.228824486151086
2343	 0.228913741364933
2344	 0.228785960584954
2345	 0.228643481865222
2346	 0.228785303447534
2347	 0.228338244296007
2348	 0.227691010806682
2349	 0.227419825670569
2350	 0.226898918648568
2351	 0.226449762621486
2352	 0.22634566551753
2353	 0.226062541771768
2354	 0.225733808562908
2355	 0.225401071606255
2356	 0.224969730399441
2357	 0.224549918724189
2358	 0.22417114370794
2359	 0.223954600863883
2360	 0.223819233750913
2361	 0.223659607153537
2362	 0.223419980115015
2363	 0.223305450472907
2364	 0.223318595738611
2365	 0.223112832101262
2366	 0.222848205993857
2367	 0.222531535058946
2368	 0.222078549444467
2369	 0.221877232988888
2370	 0.221616228914441
2371	 0.221369934393589
2372	 0.221065138045436
2373	 0.220352884962314
2374	 0.220056343274391
2375	 0.219686842361124
2376	 0.219173697874884
2377	 0.218983389452982
2378	 0.218444515342729
2379	 0.217963593933367
2380	 0.217592842120692
2381	 0.217044863362633
2382	 0.216640555396139
2383	 0.216181774984296
2384	 0.215739969071953
2385	 0.215390240734174
2386	 0.215007350247602
2387	 0.214796232391747
2388	 0.214624999896802
2389	 0.214257174279168
2390	 0.21375599956849
2391	 0.213201740051001
2392	 0.212583994753083
2393	 0.212063200977102
2394	 0.211726749885657
2395	 0.211291994164369
2396	 0.210976838895302
2397	 0.21074265457727
2398	 0.210363016139416
2399	 0.210368416233821
2400	 0.210264319001597
2401	 0.209694478919781
2402	 0.209680315747175
2403	 0.209433847782706
2404	 0.208591547707769
2405	 0.208540227108627
2406	 0.208386200254318
2407	 0.207923941032469
2408	 0.207459026574437
2409	 0.206801355915769
2410	 0.206417873354494
2411	 0.206061238338584
2412	 0.205898062131071
2413	 0.205555473131144
2414	 0.204630651409572
2415	 0.203780593963389
2416	 0.203622054801864
2417	 0.203276359824018
2418	 0.202885869243715
2419	 0.202867925028259
2420	 0.20251177586447
2421	 0.202352657446896
2422	 0.201824520578101
2423	 0.20164401383801
2424	 0.200985504457162
2425	 0.200060556355493
2426	 0.199320611835341
2427	 0.197697744859311
2428	 0.19697244086616
2429	 0.197089928059695
2430	 0.197010615964533
2431	 0.19750559839059
2432	 0.19749376986993
2433	 0.197227547339507
2434	 0.196748175781216
2435	 0.195763124646352
2436	 0.195393058447069
2437	 0.195028679204458
2438	 0.19511601967326
2439	 0.195050453151854
2440	 0.1945728960467
2441	 0.193976191450801
2442	 0.192814130382948
2443	 0.192135645944242
2444	 0.191483113192854
2445	 0.19086652381428
2446	 0.191087979170951
2447	 0.190847372645113
2448	 0.190581377037932
2449	 0.190713443204314
2450	 0.190089567272179
2451	 0.189236773659677
2452	 0.188865027521159
2453	 0.188445763257422
2454	 0.187764909088783
2455	 0.187457109052027
2456	 0.186770117790672
2457	 0.185927958507196
2458	 0.185610541460717
2459	 0.185486672671159
2460	 0.186041840845038
2461	 0.186251573441252
2462	 0.185963962146758
2463	 0.185575732683684
2464	 0.184436705456089
2465	 0.183331197200377
2466	 0.182608539523126
2467	 0.181707495627999
2468	 0.180957158576177
2469	 0.180656652227625
2470	 0.179958858556296
2471	 0.179398479634559
2472	 0.179499758047872
2473	 0.17935727470844
2474	 0.179581031444658
2475	 0.17943270392766
2476	 0.178955757074706
2477	 0.179117590101364
2478	 0.178843462608289
2479	 0.178797775000401
2480	 0.177674744023266
2481	 0.176818805163047
2482	 0.176464649539554
2483	 0.17604865093864
2484	 0.17625228616855
2485	 0.176323364236764
2486	 0.175874098440836
2487	 0.175472768431965
2488	 0.175289549886443
2489	 0.175166237300615
2490	 0.174507085904571
2491	 0.174240538130755
2492	 0.174448462140943
2493	 0.175280092430065
2494	 0.175676579563971
2495	 0.175595646899937
2496	 0.174688358437432
2497	 0.171855539841736
2498	 0.170605531983585
2499	 0.170936082251707
2500	 0.171126900743265
