Wavelength	signature0015.asd
350	 0.108360804135687
351	 0.11228096896178
352	 0.112033209583997
353	 0.104823530733414
354	 9.64344855211714E-02
355	 9.48264152876066E-02
356	 0.102414729955918
357	 0.111350989609468
358	 0.109065445272618
359	 0.10568866043171
360	 0.105013966952407
361	 0.107141181043879
362	 0.108701280253419
363	 0.110151893494018
364	 0.109769332319118
365	 0.106871183418679
366	 0.103171857414593
367	 0.105565595149544
368	 0.109863006901982
369	 0.109283584244824
370	 0.103353297819065
371	 0.101588370236951
372	 0.104408432792251
373	 0.106268779031386
374	 0.105051652166361
375	 0.106504130724011
376	 0.110499800466839
377	 0.109683334107419
378	 0.106495429579881
379	 0.105634996008843
380	 0.10852505182741
381	 0.109138310825345
382	 0.108595348203411
383	 0.108023243796379
384	 0.108223665632757
385	 0.108166306729765
386	 0.108404547692036
387	 0.109283372399867
388	 0.110629467096309
389	 0.109890985506022
390	 0.107887412260774
391	 0.106559900687323
392	 0.108324397246196
393	 0.108352088730291
394	 0.108098404038131
395	 0.108754577713233
396	 0.108414443476106
397	 0.107366562234283
398	 0.107163549524186
399	 0.108847402706802
400	 0.110122228854385
401	 0.109797966275806
402	 0.109361819228573
403	 0.111256879678239
404	 0.111377741330328
405	 0.110982892398735
406	 0.110797215197688
407	 0.110129303700317
408	 0.110114150348961
409	 0.10993522946882
410	 0.109412743601895
411	 0.111274616767643
412	 0.111288901918637
413	 0.110285199610905
414	 0.110678599150218
415	 0.11193663871675
416	 0.111871847948966
417	 0.110671870161755
418	 0.110462567552414
419	 0.111242685351735
420	 0.111629008170189
421	 0.111203503461221
422	 0.111617632708757
423	 0.1109425964703
424	 0.1105993736917
425	 0.111778162274145
426	 0.111278255839896
427	 0.111335814063238
428	 0.112017829464371
429	 0.112139730664883
430	 0.112475994840713
431	 0.112926670775621
432	 0.113211804457387
433	 0.112941818071983
434	 0.113460078182341
435	 0.113835132401254
436	 0.113395856083097
437	 0.11378336487857
438	 0.114300439696059
439	 0.114552152054741
440	 0.114413588645044
441	 0.114458220544213
442	 0.114916020747855
443	 0.115436366744907
444	 0.11516193999816
445	 0.115565721642943
446	 0.115745468205011
447	 0.11536217565665
448	 0.116775229727642
449	 0.117018638279482
450	 0.116577275270827
451	 0.117016144526876
452	 0.117624252191387
453	 0.117908262795247
454	 0.117892101969805
455	 0.118051180538145
456	 0.118115788560466
457	 0.118287706874256
458	 0.118616404391281
459	 0.118650830386322
460	 0.118938252071023
461	 0.119300126387
462	 0.119368258387313
463	 0.119156781718022
464	 0.119144129807369
465	 0.119480880351474
466	 0.119966112420416
467	 0.119824897010694
468	 0.119846084651517
469	 0.120321946074903
470	 0.120095194108497
471	 0.120117779629717
472	 0.120467963384972
473	 0.120903128072593
474	 0.121209370284864
475	 0.120787185087859
476	 0.120350573593019
477	 0.12136254030909
478	 0.121446930627666
479	 0.121340586819484
480	 0.121607977034679
481	 0.121655435968899
482	 0.121684802415871
483	 0.121715604634411
484	 0.12178735487281
485	 0.122235746757648
486	 0.122664924101626
487	 0.122896725861779
488	 0.12296317142137
489	 0.123011085028784
490	 0.123250752095691
491	 0.123589126082892
492	 0.123344918190382
493	 0.123718161696319
494	 0.124246422178676
495	 0.124277293334794
496	 0.124791088930593
497	 0.125119518797327
498	 0.125210699928135
499	 0.125502945763024
500	 0.125800760158179
501	 0.126018550729647
502	 0.126128042634699
503	 0.126156562128073
504	 0.126348451022282
505	 0.126722852974548
506	 0.127156341592561
507	 0.127307967098401
508	 0.12746954357797
509	 0.12767433978284
510	 0.127747669447943
511	 0.128060379250132
512	 0.128545039940048
513	 0.128987142567382
514	 0.128959349801806
515	 0.129449982545648
516	 0.12990655998973
517	 0.129608490549582
518	 0.129966195341729
519	 0.130339054485478
520	 0.130494800994016
521	 0.130681772790959
522	 0.130967043012476
523	 0.13129230502622
524	 0.131579470442732
525	 0.13175741133922
526	 0.131983643873547
527	 0.132307215964316
528	 0.132698968648861
529	 0.132988968610054
530	 0.133238311343733
531	 0.133496165367074
532	 0.133779506179774
533	 0.134139552733208
534	 0.13446758282215
535	 0.134720161885919
536	 0.135134370689622
537	 0.135406438576422
538	 0.13560123249707
539	 0.135943697952503
540	 0.136423774958681
541	 0.13683828459118
542	 0.137174451505875
543	 0.137672529442177
544	 0.138079686337741
545	 0.138561337690452
546	 0.139222852404557
547	 0.139661852016618
548	 0.140078385784132
549	 0.140594844861
550	 0.141252275022853
551	 0.141823959511999
552	 0.142421824372056
553	 0.143090230873744
554	 0.143702188600764
555	 0.144351341512344
556	 0.14501307241018
557	 0.145653532248708
558	 0.146329622081189
559	 0.147067506500653
560	 0.147839885662764
561	 0.148579831217141
562	 0.149243653841796
563	 0.150003199595006
564	 0.150907442941244
565	 0.151702106023694
566	 0.152526128806127
567	 0.153351983866365
568	 0.154135263412308
569	 0.155028024925259
570	 0.155949057026733
571	 0.156791497988533
572	 0.15746819529141
573	 0.158559769784929
574	 0.159698799146778
575	 0.160592375003891
576	 0.161574944691129
577	 0.162753510813745
578	 0.163927635526723
579	 0.164825043238988
580	 0.165779131512886
581	 0.166776206503176
582	 0.167778372151439
583	 0.168748169605023
584	 0.169721863993007
585	 0.170762447153864
586	 0.171831998992766
587	 0.172557168354171
588	 0.173438332799469
589	 0.174481665667196
590	 0.175427247325973
591	 0.176370096202079
592	 0.177233089005723
593	 0.177997025689308
594	 0.178743603074708
595	 0.179338926840058
596	 0.179893274191352
597	 0.180528281665335
598	 0.181152931294742
599	 0.181748867304627
600	 0.182305460629894
601	 0.182827758549309
602	 0.183468146306929
603	 0.184126181568043
604	 0.18469672758018
605	 0.185112934237714
606	 0.185654221252697
607	 0.186249218193677
608	 0.186738034074034
609	 0.18718596447068
610	 0.187608677809594
611	 0.188039724431833
612	 0.188514645399679
613	 0.188833548304614
614	 0.189246317334126
615	 0.189841149960886
616	 0.190126230688878
617	 0.190423671509041
618	 0.190831293767476
619	 0.191323571306683
620	 0.191688680115823
621	 0.192001901395996
622	 0.192364071086182
623	 0.192869750203427
624	 0.193251497670577
625	 0.193572888388492
626	 0.193928749309566
627	 0.194268116088955
628	 0.194721599420145
629	 0.195194574057355
630	 0.195508198653008
631	 0.19578921314548
632	 0.196211507551018
633	 0.1967513968958
634	 0.19712139866941
635	 0.197499721946302
636	 0.197887173179621
637	 0.198283337734159
638	 0.198854557330328
639	 0.199245172379586
640	 0.199581785704503
641	 0.200227906196873
642	 0.200671088317772
643	 0.201101421757621
644	 0.201635023359771
645	 0.202137184057518
646	 0.202504281624178
647	 0.20286202464315
648	 0.203336222655461
649	 0.203736299547095
650	 0.204175015046944
651	 0.204635487547522
652	 0.205014116406343
653	 0.205438164232357
654	 0.205876242060978
655	 0.206299652019101
656	 0.206734046244094
657	 0.207075003544796
658	 0.207463325314764
659	 0.208012489909647
660	 0.208286698628955
661	 0.208709484512963
662	 0.209322250838147
663	 0.209816055349208
664	 0.210219652307128
665	 0.210697917587811
666	 0.211298829363932
667	 0.211766463217718
668	 0.2122338094779
669	 0.2127187296796
670	 0.213202916982092
671	 0.213689186918641
672	 0.214164162560777
673	 0.214645164243002
674	 0.215175169775807
675	 0.215704726568927
676	 0.216163495553565
677	 0.216569135704793
678	 0.217162078321596
679	 0.217670730078205
680	 0.218105693437103
681	 0.218583060992902
682	 0.219113255752418
683	 0.219623592359156
684	 0.220137869085838
685	 0.220774066028094
686	 0.221352493452167
687	 0.221969143352051
688	 0.22266720408237
689	 0.223214701060004
690	 0.223814649689745
691	 0.224467480243747
692	 0.225099734268223
693	 0.225737833555499
694	 0.226415223172541
695	 0.227082934813556
696	 0.227617404078417
697	 0.228220972083538
698	 0.228849278686389
699	 0.229450992598583
700	 0.230107958231528
701	 0.230609783394494
702	 0.231084852386654
703	 0.231731601802404
704	 0.232221730944491
705	 0.232726654383578
706	 0.233265516632961
707	 0.233676458704237
708	 0.234158081075857
709	 0.234684068243466
710	 0.235189276573638
711	 0.235614714756623
712	 0.236116477537876
713	 0.236653079251562
714	 0.237115898867545
715	 0.237523201646941
716	 0.237965518569278
717	 0.238451028906811
718	 0.238905143462265
719	 0.239333739111077
720	 0.239740812782919
721	 0.240132797086078
722	 0.240511505007208
723	 0.240938438303697
724	 0.241350300861772
725	 0.241677523675559
726	 0.24207743729341
727	 0.242466485997049
728	 0.242830115701928
729	 0.243215539108103
730	 0.243488234267976
731	 0.243816347470799
732	 0.244254786740369
733	 0.244547880770932
734	 0.244803946145512
735	 0.245080537438796
736	 0.245407477184982
737	 0.245765247997612
738	 0.246009614646584
739	 0.246197033230537
740	 0.246512543657009
741	 0.246810814500658
742	 0.247156310521909
743	 0.247516384906316
744	 0.247665733497532
745	 0.247858699757492
746	 0.248096574402746
747	 0.248328042926786
748	 0.248584445370966
749	 0.248809720034046
750	 0.249021369619073
751	 0.249270956326361
752	 0.249528217113792
753	 0.249705625543616
754	 0.249831853140296
755	 0.250073179413481
756	 0.250271817700536
757	 0.250442123658688
758	 0.25060842411709
759	 0.250722853943337
760	 0.250794120702341
761	 0.250871160016941
762	 0.251013370020305
763	 0.251243477633133
764	 0.251416436841761
765	 0.251505504805922
766	 0.251597234865418
767	 0.251713146698901
768	 0.251783877410096
769	 0.251835462813748
770	 0.252092680229686
771	 0.25222030373144
772	 0.252264850248652
773	 0.25234454508015
774	 0.25238321300773
775	 0.252506835949476
776	 0.252638380448972
777	 0.252628141694248
778	 0.252713721292507
779	 0.252826311750389
780	 0.252926168316422
781	 0.253035998429636
782	 0.253050968132721
783	 0.25304285411625
784	 0.253090099534656
785	 0.253211624155546
786	 0.253260319982013
787	 0.253273235267895
788	 0.253324428301049
789	 0.253328470592901
790	 0.253361787813118
791	 0.253439637823147
792	 0.253522899171965
793	 0.25354172668877
794	 0.253461575174352
795	 0.253370866071749
796	 0.253489000650819
797	 0.253602272315242
798	 0.253627385510296
799	 0.253578440939016
800	 0.25363746332967
801	 0.253564348752577
802	 0.253465073748804
803	 0.253506291711414
804	 0.253539840392991
805	 0.253525778069685
806	 0.253500742154691
807	 0.253534373001774
808	 0.25351397625981
809	 0.253526857318442
810	 0.253553792619624
811	 0.253440076738676
812	 0.253521481483285
813	 0.253593002063485
814	 0.253503914522708
815	 0.253450406371401
816	 0.253525382552666
817	 0.253633873509239
818	 0.253637671205319
819	 0.253507396637834
820	 0.253435412682292
821	 0.253449228273633
822	 0.253472303743292
823	 0.253455064795253
824	 0.253505386621897
825	 0.25359157402222
826	 0.253553526816914
827	 0.253508501387057
828	 0.253548701283013
829	 0.253638566868249
830	 0.253556195170716
831	 0.253531413604224
832	 0.253550814686921
833	 0.253557483945819
834	 0.253548648754516
835	 0.253566965986514
836	 0.253564239478318
837	 0.253495314341252
838	 0.253484855519493
839	 0.253475933652021
840	 0.25344990330455
841	 0.253427126471647
842	 0.253496310995098
843	 0.253539498464715
844	 0.253512270944853
845	 0.253474445095008
846	 0.253585077184662
847	 0.253666824997493
848	 0.253651489707141
849	 0.253720211164433
850	 0.253700205908071
851	 0.253620349585794
852	 0.253599002173073
853	 0.253864448880028
854	 0.253984797381073
855	 0.253956904917733
856	 0.25390827523705
857	 0.253825583389321
858	 0.2538699228248
859	 0.254009509340188
860	 0.254113427957533
861	 0.254113880614883
862	 0.254235574801834
863	 0.254412228877791
864	 0.25439614247398
865	 0.254447557915077
866	 0.254467898961657
867	 0.254475066019011
868	 0.254628600671204
869	 0.254739964956082
870	 0.254766953785999
871	 0.254785265250421
872	 0.254991080130837
873	 0.25491585875151
874	 0.254871343127206
875	 0.255065890711598
876	 0.255091296893598
877	 0.255311005696949
878	 0.255478474080358
879	 0.255380144147706
880	 0.255438807844381
881	 0.255546786971041
882	 0.25565369877164
883	 0.255745792391249
884	 0.255895190096454
885	 0.25603941063401
886	 0.256124192205189
887	 0.256143497037229
888	 0.256295946212907
889	 0.256328933837656
890	 0.256359689355283
891	 0.256674235943499
892	 0.256745566900113
893	 0.256824291203893
894	 0.256983032984889
895	 0.257089221734228
896	 0.257267958617952
897	 0.257388441244879
898	 0.257490481405096
899	 0.257796951670461
900	 0.257913950225468
901	 0.25808664414175
902	 0.258376546626912
903	 0.258470066380001
904	 0.258624907371679
905	 0.258771546055368
906	 0.258923989323443
907	 0.259324111593431
908	 0.259335534554773
909	 0.259259975447913
910	 0.259476454754749
911	 0.260039836062423
912	 0.260268768126883
913	 0.260337266389969
914	 0.260515121024071
915	 0.260680092608193
916	 0.260833673550868
917	 0.261023881246887
918	 0.261275204374326
919	 0.261510944283875
920	 0.261697712642087
921	 0.261821892369745
922	 0.261920856059128
923	 0.262150980181365
924	 0.262367125623392
925	 0.26251692743917
926	 0.262653453106109
927	 0.263065234802386
928	 0.263328397661267
929	 0.263432562717833
930	 0.263576726026244
931	 0.264015286457027
932	 0.26430092702056
933	 0.264422820594579
934	 0.264565851333058
935	 0.264792307565719
936	 0.265055046780097
937	 0.265279775597758
938	 0.265455400753195
939	 0.265864438728163
940	 0.266221341436155
941	 0.266429993598805
942	 0.266556464554658
943	 0.26686546947219
944	 0.267053474921832
945	 0.267204062512434
946	 0.267512541707659
947	 0.267792666948836
948	 0.267898922540408
949	 0.268056533177917
950	 0.268527087684435
951	 0.268989222438863
952	 0.269229433531253
953	 0.269414086426449
954	 0.269715824065354
955	 0.269530969348967
956	 0.269831710690911
957	 0.270273097238982
958	 0.270271354639163
959	 0.270719618678449
960	 0.271047253744904
961	 0.271386914278547
962	 0.2719234370311
963	 0.271988168281578
964	 0.272095005753646
965	 0.272371508344957
966	 0.272737938470434
967	 0.272962559870843
968	 0.273433633766688
969	 0.274006936643763
970	 0.274469025808081
971	 0.274955760045908
972	 0.275004426292011
973	 0.275142538761182
974	 0.275697893571032
975	 0.275878840442532
976	 0.275876553910115
977	 0.276253386161224
978	 0.277076987645905
979	 0.277359181008009
980	 0.277375098513448
981	 0.277502422668697
982	 0.277857003558629
983	 0.278122718879301
984	 0.278848969669339
985	 0.279299217297435
986	 0.27935318934622
987	 0.279853735887374
988	 0.280084111779872
989	 0.280028070993169
990	 0.280164486404169
991	 0.281086759412369
992	 0.28130833849578
993	 0.281857747742514
994	 0.282594502074812
995	 0.282546576817082
996	 0.282742715607942
997	 0.283218510675363
998	 0.283798266483849
999	 0.284220133251364
1000	 0.28430168878169
1001	 0.272518522824068
1002	 0.272862329657904
1003	 0.273149084556255
1004	 0.273209008010556
1005	 0.273462869083997
1006	 0.273897036903636
1007	 0.27428602842571
1008	 0.274618125042502
1009	 0.274871475801958
1010	 0.274986415832182
1011	 0.275172302993122
1012	 0.275406949357348
1013	 0.275705874272659
1014	 0.276103957240891
1015	 0.276426131573214
1016	 0.276654707000517
1017	 0.276718156020698
1018	 0.276889882811055
1019	 0.27711937420588
1020	 0.277283419939603
1021	 0.277503537178783
1022	 0.27774772083012
1023	 0.277997874758166
1024	 0.278257345781036
1025	 0.278497634316399
1026	 0.278917983742195
1027	 0.279342696421632
1028	 0.27955719206952
1029	 0.27975550693628
1030	 0.279941958759099
1031	 0.280140888031991
1032	 0.280397358885297
1033	 0.280621306502188
1034	 0.280860893291082
1035	 0.281052146796547
1036	 0.281251445928846
1037	 0.281422336120303
1038	 0.281586493915666
1039	 0.28174052076538
1040	 0.281945176502217
1041	 0.282097021266551
1042	 0.282387269100802
1043	 0.282716476678349
1044	 0.282942637218571
1045	 0.283242945926453
1046	 0.283475312691126
1047	 0.283631807375092
1048	 0.283809385933581
1049	 0.28396100526845
1050	 0.28415062219368
1051	 0.284418025028559
1052	 0.284704106457687
1053	 0.28497733255855
1054	 0.285265719302588
1055	 0.285497015445752
1056	 0.28572613394436
1057	 0.286065479356739
1058	 0.286380136655061
1059	 0.286612451766612
1060	 0.286840754687653
1061	 0.286970432604519
1062	 0.287052817754453
1063	 0.287251225042356
1064	 0.287431704869326
1065	 0.287619479988831
1066	 0.288010839496762
1067	 0.288427127109353
1068	 0.288721232597617
1069	 0.289016311152567
1070	 0.289307138214545
1071	 0.289511278856089
1072	 0.289661095841775
1073	 0.289922027752779
1074	 0.290231439264387
1075	 0.290461080361856
1076	 0.290668322365096
1077	 0.290892576813873
1078	 0.291093924025999
1079	 0.291365873234879
1080	 0.291652752689108
1081	 0.291880698591222
1082	 0.292148342443518
1083	 0.292413468225518
1084	 0.292648148069196
1085	 0.292875611922341
1086	 0.293095039877329
1087	 0.293342794992579
1088	 0.293564931596844
1089	 0.29385267418391
1090	 0.294129317000397
1091	 0.294427947065972
1092	 0.294749829892751
1093	 0.294980001259095
1094	 0.295251086465286
1095	 0.295580779163021
1096	 0.29581128499115
1097	 0.29600880441331
1098	 0.296238190973491
1099	 0.296441657480619
1100	 0.296669171768808
1101	 0.29693537998143
1102	 0.297194158888054
1103	 0.297436737543106
1104	 0.29772466708033
1105	 0.298000251823456
1106	 0.298191323803754
1107	 0.298385123763722
1108	 0.29858578814761
1109	 0.298793074857115
1110	 0.298994527166874
1111	 0.299196845951018
1112	 0.299377635404296
1113	 0.299587784157878
1114	 0.299792765248907
1115	 0.300040611631157
1116	 0.300375045594594
1117	 0.300593953197193
1118	 0.300757520447058
1119	 0.300962425946987
1120	 0.301135979282802
1121	 0.301289380125656
1122	 0.301559938255705
1123	 0.301816579193573
1124	 0.302040675045672
1125	 0.302328930278661
1126	 0.302597383403118
1127	 0.302806019168483
1128	 0.302983955698769
1129	 0.303160857892681
1130	 0.303345303306207
1131	 0.303486609674438
1132	 0.303701594844169
1133	 0.303989530218748
1134	 0.304199288957545
1135	 0.304422190577158
1136	 0.304602204268816
1137	 0.304725368672796
1138	 0.304862544707915
1139	 0.304982955433218
1140	 0.30510042716952
1141	 0.305227702185191
1142	 0.30537581304547
1143	 0.305591362157376
1144	 0.305796654464267
1145	 0.305956796735919
1146	 0.306123649892605
1147	 0.306252418978882
1148	 0.306307185667063
1149	 0.306404661289489
1150	 0.306504272188032
1151	 0.306624920573457
1152	 0.306728161661374
1153	 0.306891853260752
1154	 0.307129914029299
1155	 0.307318295773794
1156	 0.307506351576558
1157	 0.307709641097827
1158	 0.307905671309742
1159	 0.308060347401327
1160	 0.308199705140072
1161	 0.308409121596631
1162	 0.308622905608083
1163	 0.308833257438463
1164	 0.309059535579423
1165	 0.309345273439272
1166	 0.309570428850304
1167	 0.309746749299857
1168	 0.30997572361716
1169	 0.31020242871179
1170	 0.310456570720658
1171	 0.310780973190377
1172	 0.311047003311021
1173	 0.311281253237292
1174	 0.311528272043774
1175	 0.311768326075419
1176	 0.311979741267301
1177	 0.312233824237748
1178	 0.312519879079723
1179	 0.312745356046815
1180	 0.31300628001456
1181	 0.313243728981704
1182	 0.313468274674234
1183	 0.3136806036385
1184	 0.313872231068547
1185	 0.314090393303348
1186	 0.314300311453243
1187	 0.314524487792843
1188	 0.314797310805591
1189	 0.315029339718371
1190	 0.315244125415882
1191	 0.31545074280869
1192	 0.315619812929947
1193	 0.315815550705803
1194	 0.316015975000131
1195	 0.316225440008737
1196	 0.316433503865326
1197	 0.316660504476344
1198	 0.316878128113177
1199	 0.317097499852223
1200	 0.317295956392993
1201	 0.317493283218978
1202	 0.317680700295088
1203	 0.31783954587067
1204	 0.318018859735965
1205	 0.318222423957015
1206	 0.318385610881282
1207	 0.318508848065284
1208	 0.318673729982814
1209	 0.318846624898345
1210	 0.319013081148137
1211	 0.319197923581398
1212	 0.319382828296378
1213	 0.319565707361941
1214	 0.319732526517007
1215	 0.319863941201349
1216	 0.320063127930648
1217	 0.320247561138339
1218	 0.320414556870647
1219	 0.320601305162562
1220	 0.320850846743238
1221	 0.321008132934936
1222	 0.321119083790784
1223	 0.321234725313608
1224	 0.321290323792613
1225	 0.321400974842312
1226	 0.321536632456679
1227	 0.321668036901344
1228	 0.321801917621418
1229	 0.321958997023687
1230	 0.322144572982806
1231	 0.322305122225279
1232	 0.322487455501102
1233	 0.322645982058302
1234	 0.322769294412645
1235	 0.322886362535274
1236	 0.323029454539347
1237	 0.323182175161212
1238	 0.323326561502838
1239	 0.32348279549101
1240	 0.323629068339754
1241	 0.323766819978142
1242	 0.323902328072024
1243	 0.324045440299892
1244	 0.324169621381207
1245	 0.324273752007374
1246	 0.324386951148668
1247	 0.324474334878255
1248	 0.324603780871277
1249	 0.324742977061065
1250	 0.324908076254206
1251	 0.32514900591631
1252	 0.325327694664525
1253	 0.325498506669587
1254	 0.325651438258452
1255	 0.325780872739584
1256	 0.325851095135411
1257	 0.325991359290374
1258	 0.326155307051057
1259	 0.326296622161407
1260	 0.326456203483113
1261	 0.326597264655609
1262	 0.326727619822602
1263	 0.326835433182669
1264	 0.326939741879119
1265	 0.327026751512494
1266	 0.327059849750762
1267	 0.327139857055608
1268	 0.32724216980646
1269	 0.327334683913379
1270	 0.327434387080496
1271	 0.32753956711074
1272	 0.327657171714127
1273	 0.327751709433307
1274	 0.327849689022339
1275	 0.327934980598206
1276	 0.327981240837184
1277	 0.328045924282537
1278	 0.328115758285193
1279	 0.328190299059612
1280	 0.328269155334743
1281	 0.328360885809648
1282	 0.328439855021091
1283	 0.328512539361874
1284	 0.328593337449821
1285	 0.328680935628727
1286	 0.328751819764372
1287	 0.328833771990659
1288	 0.32888682705042
1289	 0.328893437552981
1290	 0.328937459224543
1291	 0.328984094113793
1292	 0.329037065814173
1293	 0.329115295547683
1294	 0.329185021286867
1295	 0.329259638493056
1296	 0.329318377341945
1297	 0.329359098814045
1298	 0.329417568030867
1299	 0.329471196509759
1300	 0.329520602226857
1301	 0.329604200346262
1302	 0.329736084521482
1303	 0.329793461984814
1304	 0.329825121513981
1305	 0.329887721426762
1306	 0.32991843559383
1307	 0.32997974364732
1308	 0.330098164004867
1309	 0.330163169769767
1310	 0.330199001658424
1311	 0.330243521437659
1312	 0.33028533946263
1313	 0.330314125215383
1314	 0.330311870492522
1315	 0.330349246110769
1316	 0.330419663384444
1317	 0.330446272800394
1318	 0.330472695209938
1319	 0.330496515477651
1320	 0.330480941325196
1321	 0.330479827133069
1322	 0.330519689785189
1323	 0.330521219578703
1324	 0.330494738799544
1325	 0.330454048126094
1326	 0.330432403418781
1327	 0.330397448508768
1328	 0.330386969381572
1329	 0.330423054585676
1330	 0.330386529318076
1331	 0.330318980529336
1332	 0.330269455392315
1333	 0.330190338027164
1334	 0.330123560779421
1335	 0.330084568067514
1336	 0.33001786005537
1337	 0.329925573822541
1338	 0.329840398845888
1339	 0.329754787108595
1340	 0.329666971825063
1341	 0.329592366287077
1342	 0.329485053673443
1343	 0.329354651229429
1344	 0.329228607499939
1345	 0.329104337734095
1346	 0.328945683157231
1347	 0.328762026274683
1348	 0.328586967922141
1349	 0.328386693340512
1350	 0.32817653748141
1351	 0.328008092738462
1352	 0.327867101531254
1353	 0.327685467074165
1354	 0.32747759312947
1355	 0.327280221205859
1356	 0.327051606353117
1357	 0.326867976721165
1358	 0.326715907481792
1359	 0.326544748169583
1360	 0.326365443403293
1361	 0.326225176495712
1362	 0.326122068877523
1363	 0.325953611095161
1364	 0.325812935422759
1365	 0.325602003018858
1366	 0.325283022590083
1367	 0.325046085866339
1368	 0.324839618556183
1369	 0.324603507506623
1370	 0.324407981847653
1371	 0.324141836726852
1372	 0.323859745289478
1373	 0.32350206310553
1374	 0.323126083356403
1375	 0.322652806251445
1376	 0.322095748951501
1377	 0.32146379640259
1378	 0.32077757341134
1379	 0.320040367964592
1380	 0.319291166698791
1381	 0.318527137468421
1382	 0.317751871037395
1383	 0.316951718147653
1384	 0.316136375620614
1385	 0.315289745182399
1386	 0.31448117936014
1387	 0.313646260257113
1388	 0.312888541024355
1389	 0.312175279703441
1390	 0.311480547325117
1391	 0.310834995442763
1392	 0.310171928739911
1393	 0.309533317798378
1394	 0.308861937032788
1395	 0.308195242363775
1396	 0.307481222620899
1397	 0.306743356626418
1398	 0.305971235768389
1399	 0.305184129493267
1400	 0.304336349165437
1401	 0.303464594778057
1402	 0.302517267357224
1403	 0.301482358488172
1404	 0.300432129183115
1405	 0.29930359500428
1406	 0.298198970941977
1407	 0.297059064858557
1408	 0.295948571343189
1409	 0.294858829744651
1410	 0.293840842092208
1411	 0.292924279538497
1412	 0.292124749833738
1413	 0.291525377293599
1414	 0.291062964647234
1415	 0.29077951696083
1416	 0.290644666418214
1417	 0.290576183475385
1418	 0.290641223747861
1419	 0.290734468197714
1420	 0.290949300046757
1421	 0.291096959416504
1422	 0.291288632303643
1423	 0.29144617957853
1424	 0.291572482630108
1425	 0.291706074520407
1426	 0.291807491447192
1427	 0.291979212621455
1428	 0.292171287057455
1429	 0.292392091561826
1430	 0.29271752554541
1431	 0.292956740908608
1432	 0.293137072335187
1433	 0.293363877359156
1434	 0.293570807210696
1435	 0.293804278937061
1436	 0.294090394058648
1437	 0.294356518324685
1438	 0.294608041775558
1439	 0.294875824801335
1440	 0.295165213919537
1441	 0.295437829109239
1442	 0.295705136559362
1443	 0.295982084381396
1444	 0.296261279315347
1445	 0.296533190388035
1446	 0.296788675595189
1447	 0.297044526264295
1448	 0.297302417505339
1449	 0.297524166238451
1450	 0.297730204247422
1451	 0.297931785205855
1452	 0.298113359223363
1453	 0.298279886693825
1454	 0.298447178518193
1455	 0.298601507124399
1456	 0.298756596644068
1457	 0.298893998534304
1458	 0.299029548234306
1459	 0.299172708423727
1460	 0.299308952132497
1461	 0.299432703056857
1462	 0.299536825114089
1463	 0.299627226414758
1464	 0.299739951573343
1465	 0.299826963628007
1466	 0.299963107884572
1467	 0.30013505312676
1468	 0.300311268643905
1469	 0.300476183057548
1470	 0.300707599157105
1471	 0.300993708040979
1472	 0.301280853938249
1473	 0.301627272235079
1474	 0.301941715265854
1475	 0.302230242581429
1476	 0.302553350549887
1477	 0.302887107739924
1478	 0.303230299836051
1479	 0.303612847306549
1480	 0.303967858035175
1481	 0.304310242700072
1482	 0.304660180821852
1483	 0.305001154077604
1484	 0.305346343667129
1485	 0.305707503577238
1486	 0.306051229031037
1487	 0.306382544647457
1488	 0.306718461404433
1489	 0.307052455740556
1490	 0.307381769051211
1491	 0.307724351209805
1492	 0.308032043519707
1493	 0.308341283047088
1494	 0.308645214298572
1495	 0.308944648764317
1496	 0.309261562429342
1497	 0.309594302549672
1498	 0.3099028413892
1499	 0.310170357586897
1500	 0.310431662851264
1501	 0.310690973263986
1502	 0.310923828601696
1503	 0.311143267473493
1504	 0.311379936562608
1505	 0.3115811483439
1506	 0.311771611741416
1507	 0.31200127939224
1508	 0.312253016190197
1509	 0.312510444763958
1510	 0.312805140782111
1511	 0.313046769427316
1512	 0.31327607931217
1513	 0.313503112274202
1514	 0.313691872121732
1515	 0.313914860656803
1516	 0.314160480742428
1517	 0.314388610022453
1518	 0.314617053056852
1519	 0.314845883397365
1520	 0.315079400274699
1521	 0.315288868091084
1522	 0.315491332262197
1523	 0.315679219999165
1524	 0.31584206683306
1525	 0.316011005495333
1526	 0.316185839515218
1527	 0.316341905774641
1528	 0.316463851704066
1529	 0.316623447079659
1530	 0.316789275806493
1531	 0.316957500898953
1532	 0.317177153126841
1533	 0.317337129093892
1534	 0.317458127763451
1535	 0.317587246692025
1536	 0.317682203364042
1537	 0.31780033757149
1538	 0.3179412542959
1539	 0.318058802470911
1540	 0.318152482258248
1541	 0.318282247302053
1542	 0.318424929716335
1543	 0.318563434524691
1544	 0.318723586317041
1545	 0.318878861763621
1546	 0.319027562820648
1547	 0.319165937436404
1548	 0.319307829692559
1549	 0.319448704397756
1550	 0.319578530522997
1551	 0.319707785352817
1552	 0.319850219998941
1553	 0.319972409040724
1554	 0.320062012507266
1555	 0.320172516044686
1556	 0.320300775008931
1557	 0.320407104100309
1558	 0.32051206903992
1559	 0.32061193002392
1560	 0.320664480597527
1561	 0.320764636321521
1562	 0.320912803619769
1563	 0.321030351736567
1564	 0.321161304119381
1565	 0.321278557884154
1566	 0.32136613046753
1567	 0.321457122570406
1568	 0.321557162256708
1569	 0.3216446638047
1570	 0.32169623220055
1571	 0.321782571500086
1572	 0.321896749566093
1573	 0.321991590656878
1574	 0.322091902048044
1575	 0.322210253304474
1576	 0.322274830411764
1577	 0.322299023005184
1578	 0.322337166385835
1579	 0.322387405885482
1580	 0.322462429960768
1581	 0.322542360996908
1582	 0.322619014985773
1583	 0.322683103864867
1584	 0.322709247963033
1585	 0.322761414463649
1586	 0.322861509698779
1587	 0.322946437893916
1588	 0.323034104759075
1589	 0.323178689444127
1590	 0.323276007603687
1591	 0.323336271503268
1592	 0.323444679400888
1593	 0.323501785873892
1594	 0.323545443319655
1595	 0.323629047093893
1596	 0.323680850375492
1597	 0.323750483441521
1598	 0.323881378511158
1599	 0.323982974484567
1600	 0.324041235907022
1601	 0.324109472341731
1602	 0.324146766813858
1603	 0.324183103645227
1604	 0.324290096646588
1605	 0.324383910391312
1606	 0.324428125332293
1607	 0.324470488989092
1608	 0.324495148803722
1609	 0.324509584387191
1610	 0.324526493698875
1611	 0.324566131732631
1612	 0.324636289337635
1613	 0.324701894905528
1614	 0.324759295358089
1615	 0.324835281643059
1616	 0.324932407630561
1617	 0.325019380484648
1618	 0.325086044236513
1619	 0.325184066655163
1620	 0.325207758516534
1621	 0.325150901681595
1622	 0.325193974307552
1623	 0.325254043526324
1624	 0.325320298563135
1625	 0.325428003653981
1626	 0.325513295277783
1627	 0.325576850475974
1628	 0.325704819101896
1629	 0.325826834855639
1630	 0.325944154512272
1631	 0.32605515720411
1632	 0.32610487204604
1633	 0.326151905496957
1634	 0.326179534418034
1635	 0.326195325341679
1636	 0.326212462880481
1637	 0.32624039611265
1638	 0.326319746614169
1639	 0.326373822968659
1640	 0.326404213283932
1641	 0.326464857553719
1642	 0.326501976613671
1643	 0.326564520928077
1644	 0.326710220160614
1645	 0.326803436961452
1646	 0.326856927247751
1647	 0.326925407844388
1648	 0.326980494092723
1649	 0.327029507698771
1650	 0.327086610526938
1651	 0.32714128315671
1652	 0.327168714974154
1653	 0.327217726638385
1654	 0.327319080907891
1655	 0.327365089517399
1656	 0.327376883974006
1657	 0.327398670562656
1658	 0.327373574425739
1659	 0.327376081011466
1660	 0.327420124132065
1661	 0.327442084100342
1662	 0.327429204820398
1663	 0.327463950925298
1664	 0.327532711831099
1665	 0.327583408478222
1666	 0.327675787859696
1667	 0.327729783338825
1668	 0.327724665158814
1669	 0.327754306620721
1670	 0.327826903775214
1671	 0.32783671429314
1672	 0.327823906124684
1673	 0.327804265857038
1674	 0.327676708202521
1675	 0.327657944883155
1676	 0.327729056366148
1677	 0.327760609418381
1678	 0.327793690344009
1679	 0.327890088496595
1680	 0.328032172715393
1681	 0.328117928912983
1682	 0.328281735028006
1683	 0.328327275821381
1684	 0.328235137124308
1685	 0.328193530372652
1686	 0.32810429214553
1687	 0.328081400700792
1688	 0.32810129166241
1689	 0.328102894494086
1690	 0.32813736103739
1691	 0.328151346571931
1692	 0.328127271037976
1693	 0.328147629007891
1694	 0.328198074904039
1695	 0.32823443257494
1696	 0.32830577118177
1697	 0.328322079868894
1698	 0.328306887245067
1699	 0.328289543767419
1700	 0.328222896237502
1701	 0.328213723394799
1702	 0.328228449930193
1703	 0.328230595238666
1704	 0.328239973738909
1705	 0.328274642686356
1706	 0.328334749516649
1707	 0.328348734315944
1708	 0.328371934809029
1709	 0.328381206061938
1710	 0.328353245995602
1711	 0.328317590821847
1712	 0.328292032832835
1713	 0.328245157429969
1714	 0.328138629601848
1715	 0.328086282882957
1716	 0.328066168597984
1717	 0.3280409398896
1718	 0.328026157896616
1719	 0.327999035578227
1720	 0.327974135798943
1721	 0.327945100922547
1722	 0.32793014099311
1723	 0.327921163061181
1724	 0.327890522326507
1725	 0.327791121272727
1726	 0.327673147499334
1727	 0.327625443139726
1728	 0.327545116219158
1729	 0.327442988982156
1730	 0.327408085768578
1731	 0.327348002720153
1732	 0.327237079302839
1733	 0.327134636401187
1734	 0.327041517280498
1735	 0.326905588946251
1736	 0.326795407430962
1737	 0.326731559523117
1738	 0.326661581774535
1739	 0.326579038385177
1740	 0.326506798148379
1741	 0.326460051519701
1742	 0.326386705160072
1743	 0.326311036421515
1744	 0.326221573959949
1745	 0.326098075509514
1746	 0.326021601413616
1747	 0.325977240428157
1748	 0.325878618698753
1749	 0.325769026353243
1750	 0.325667297569597
1751	 0.325517570403248
1752	 0.325419295631639
1753	 0.325372419842947
1754	 0.325296631482197
1755	 0.325213572024321
1756	 0.325133542886473
1757	 0.32507163683344
1758	 0.324974861549158
1759	 0.324849061185022
1760	 0.324783884523318
1761	 0.324705127391195
1762	 0.324679307662217
1763	 0.324622966549296
1764	 0.32451225039276
1765	 0.324392469505482
1766	 0.324272033983621
1767	 0.324148819427505
1768	 0.324037129555081
1769	 0.323913024248045
1770	 0.323762195891362
1771	 0.323628828442241
1772	 0.323563816718994
1773	 0.323518665165169
1774	 0.323483223781647
1775	 0.323470193505529
1776	 0.323371805686572
1777	 0.323286428437378
1778	 0.323258377048129
1779	 0.32317204775874
1780	 0.323151647726612
1781	 0.32310915186239
1782	 0.32303541732702
1783	 0.323005306623135
1784	 0.322989566599884
1785	 0.322964888369588
1786	 0.322973579267868
1787	 0.322949598584447
1788	 0.322898864914359
1789	 0.322858011415761
1790	 0.322803742076308
1791	 0.32277841312065
1792	 0.322768923919162
1793	 0.322781532201977
1794	 0.322770122075168
1795	 0.322764218240243
1796	 0.322779237154584
1797	 0.322793748718047
1798	 0.322818915788486
1799	 0.32284977936635
1800	 0.322841668381588
1801	 0.322779778090851
1802	 0.322713852912943
1803	 0.322641853162662
1804	 0.322607183710637
1805	 0.322643881847763
1806	 0.322654627619783
1807	 0.322646987972074
1808	 0.322666264885122
1809	 0.322678098824136
1810	 0.322695822114199
1811	 0.322732737749215
1812	 0.322723220752096
1813	 0.322652086050786
1814	 0.322623003093739
1815	 0.322593284845259
1816	 0.32260241765368
1817	 0.322636324730083
1818	 0.322674590436398
1819	 0.322726023045372
1820	 0.322671088702199
1821	 0.322640935239776
1822	 0.322671187665124
1823	 0.322701373174265
1824	 0.322739590583878
1825	 0.322742339666105
1826	 0.322714337698641
1827	 0.322594647175675
1828	 0.322440202967835
1829	 0.322366095395166
1830	 0.322224858560556
1831	 0.319421946846824
1832	 0.319358710522259
1833	 0.319301134849321
1834	 0.319279053474359
1835	 0.319253198287699
1836	 0.319263812419013
1837	 0.319355720975563
1838	 0.319374824626091
1839	 0.319403047083113
1840	 0.319316213491571
1841	 0.319234137844955
1842	 0.319230744943934
1843	 0.319195818132527
1844	 0.319181305887389
1845	 0.31914155195507
1846	 0.319087019318973
1847	 0.318996112524754
1848	 0.318896100071769
1849	 0.318761406956294
1850	 0.318545983587554
1851	 0.318439182337878
1852	 0.318360431750733
1853	 0.318239783402344
1854	 0.318069954267534
1855	 0.317924732682094
1856	 0.317680198210721
1857	 0.317334819450301
1858	 0.316997684349645
1859	 0.316666685999423
1860	 0.316265926268258
1861	 0.315754506955628
1862	 0.315141689128314
1863	 0.314535658527815
1864	 0.313895709179639
1865	 0.313166998542951
1866	 0.312424015677412
1867	 0.311596177616765
1868	 0.310673733220947
1869	 0.309640924863802
1870	 0.308666279694705
1871	 0.307573127095403
1872	 0.306321613001836
1873	 0.305090916975737
1874	 0.30365728825147
1875	 0.302176084012599
1876	 0.300842284859835
1877	 0.29931724408519
1878	 0.297645058956997
1879	 0.295871212574253
1880	 0.294040041383667
1881	 0.29205481872015
1882	 0.289945382197444
1883	 0.28774337987496
1884	 0.285439986652866
1885	 0.282918402600282
1886	 0.280325943745753
1887	 0.277673160629764
1888	 0.274888719622847
1889	 0.271983833951408
1890	 0.268973945290644
1891	 0.265757736468582
1892	 0.262424115012676
1893	 0.259124673728843
1894	 0.255839615619109
1895	 0.252507199075167
1896	 0.249212011458207
1897	 0.245873290369609
1898	 0.242432664285658
1899	 0.23919307374617
1900	 0.236046694018505
1901	 0.232979103891434
1902	 0.23001114183252
1903	 0.227368256622596
1904	 0.22475424158982
1905	 0.222321610947818
1906	 0.220256505929065
1907	 0.218326259215876
1908	 0.216642210417641
1909	 0.215241241583865
1910	 0.21397082530441
1911	 0.212852211881072
1912	 0.211889610833886
1913	 0.211089458284643
1914	 0.210437870094952
1915	 0.209890081089654
1916	 0.209520262365156
1917	 0.209278849658341
1918	 0.209124703706686
1919	 0.209184117582071
1920	 0.209342672853434
1921	 0.209508858693425
1922	 0.20975192499561
1923	 0.210062562161532
1924	 0.210439748063822
1925	 0.210810521613091
1926	 0.211273857208063
1927	 0.211809729643926
1928	 0.21226582128915
1929	 0.212778746900277
1930	 0.213275429080834
1931	 0.213778165814718
1932	 0.214360447697078
1933	 0.21488714214489
1934	 0.21540680753518
1935	 0.215934024618126
1936	 0.216425717669658
1937	 0.216958564640943
1938	 0.21756382563312
1939	 0.218215737646988
1940	 0.218867894852145
1941	 0.219411726309955
1942	 0.219964334410143
1943	 0.220509287995337
1944	 0.221049654119873
1945	 0.221634831734064
1946	 0.222284334357688
1947	 0.222881782689094
1948	 0.223475004718351
1949	 0.224067563244256
1950	 0.224639402444954
1951	 0.225258973851923
1952	 0.225898839816709
1953	 0.226520860325731
1954	 0.227151428352356
1955	 0.227766453472141
1956	 0.228351690767763
1957	 0.228961874253616
1958	 0.2296071801569
1959	 0.230290129040195
1960	 0.230972201394538
1961	 0.231686323979935
1962	 0.232399716553147
1963	 0.23305190632131
1964	 0.233673394018157
1965	 0.234331819945566
1966	 0.234982948721811
1967	 0.235664998040446
1968	 0.236406727137159
1969	 0.237158925457732
1970	 0.237938970095945
1971	 0.238696316054957
1972	 0.239506814930773
1973	 0.240228997200293
1974	 0.240884023196395
1975	 0.241536461791194
1976	 0.242198924886737
1977	 0.242905311349741
1978	 0.243566539937391
1979	 0.244195395901095
1980	 0.244877612154864
1981	 0.24556635064372
1982	 0.246261837663923
1983	 0.247012712987786
1984	 0.247761778005368
1985	 0.248466461932317
1986	 0.24921270798653
1987	 0.249984083240651
1988	 0.250833591193124
1989	 0.251647515798882
1990	 0.252500439190198
1991	 0.253370317049795
1992	 0.254148946238529
1993	 0.254858694204722
1994	 0.255556991864203
1995	 0.256292089560987
1996	 0.256996490983329
1997	 0.25776030211249
1998	 0.258607984828189
1999	 0.259395889502999
2000	 0.260188566725748
2001	 0.260968933325002
2002	 0.261661523880906
2003	 0.262382875456092
2004	 0.263113751402903
2005	 0.263814627987261
2006	 0.264501991669072
2007	 0.265186581082601
2008	 0.265909421027376
2009	 0.266635784697095
2010	 0.267335648243411
2011	 0.268128436480077
2012	 0.268793290124418
2013	 0.269292858639427
2014	 0.269940010602135
2015	 0.270631997838202
2016	 0.271256849225458
2017	 0.271969760952338
2018	 0.272703921271642
2019	 0.273376772644813
2020	 0.27398977313556
2021	 0.274621070470431
2022	 0.275273030845711
2023	 0.275875302044335
2024	 0.276444341269377
2025	 0.277022132070106
2026	 0.27757123449786
2027	 0.278110188629551
2028	 0.278647569465173
2029	 0.279184672734764
2030	 0.279617120028863
2031	 0.280059796905913
2032	 0.280561114362329
2033	 0.28104026026644
2034	 0.281594792502442
2035	 0.28219069735458
2036	 0.28270581212775
2037	 0.283192140245364
2038	 0.283639410435211
2039	 0.283983944058048
2040	 0.284418957513551
2041	 0.284880273577241
2042	 0.285306979160263
2043	 0.285747918375736
2044	 0.286224618020267
2045	 0.286640368749484
2046	 0.287000253749962
2047	 0.287336365169473
2048	 0.287684043054918
2049	 0.288056085849021
2050	 0.288326562816263
2051	 0.288646782371452
2052	 0.289034685787808
2053	 0.289344831921547
2054	 0.289581555572288
2055	 0.289885628575474
2056	 0.290166843497365
2057	 0.290467921787039
2058	 0.290763884193946
2059	 0.291171667018306
2060	 0.291562811363046
2061	 0.29195096187986
2062	 0.292448873651914
2063	 0.292875155602451
2064	 0.293254074089087
2065	 0.293653039169142
2066	 0.293983925553723
2067	 0.294211315935847
2068	 0.294521684974242
2069	 0.294834904113871
2070	 0.295163131409973
2071	 0.295516409484766
2072	 0.295885652866766
2073	 0.296247501917298
2074	 0.296624574503506
2075	 0.297067209139263
2076	 0.297466936350269
2077	 0.297808626988665
2078	 0.298176063436588
2079	 0.298406206900434
2080	 0.298606092951328
2081	 0.2988916273165
2082	 0.29921497258633
2083	 0.299481002233881
2084	 0.299756398612958
2085	 0.300060754223997
2086	 0.30032428619738
2087	 0.300604157225232
2088	 0.30098818704058
2089	 0.301273647712567
2090	 0.301434892919676
2091	 0.301686923739098
2092	 0.301943283089158
2093	 0.30224802599909
2094	 0.302548414215774
2095	 0.30284764056745
2096	 0.303154123566498
2097	 0.303466125569735
2098	 0.303756881788472
2099	 0.304092683224791
2100	 0.304348428481311
2101	 0.304543026252436
2102	 0.304715076835119
2103	 0.304806720416833
2104	 0.304999151738442
2105	 0.30518546045144
2106	 0.305425313083409
2107	 0.305783088994456
2108	 0.306069968179093
2109	 0.306352688091245
2110	 0.306597091150398
2111	 0.306809195829897
2112	 0.307102621916886
2113	 0.307407229905361
2114	 0.307720298322399
2115	 0.308020691154177
2116	 0.308357202690842
2117	 0.308615223515142
2118	 0.308812461034996
2119	 0.309050955737934
2120	 0.309296573925285
2121	 0.309512612870009
2122	 0.309717646187075
2123	 0.309926486948457
2124	 0.310128505725785
2125	 0.310278237018874
2126	 0.310415684115302
2127	 0.31054216712032
2128	 0.310620905127389
2129	 0.310732818121715
2130	 0.310843332685043
2131	 0.311003384785837
2132	 0.311071370578812
2133	 0.311069465046464
2134	 0.311117667807829
2135	 0.311145701885909
2136	 0.311164457130254
2137	 0.311207660561426
2138	 0.311229606719271
2139	 0.311299138085445
2140	 0.311208089276901
2141	 0.311002856896756
2142	 0.310844345008544
2143	 0.310549300204019
2144	 0.310332200316009
2145	 0.31026236169839
2146	 0.31009070988255
2147	 0.309880440132156
2148	 0.309645814757862
2149	 0.309272516300492
2150	 0.308879824976594
2151	 0.308525869816242
2152	 0.308103650130198
2153	 0.30775262016519
2154	 0.30750200245949
2155	 0.307141698051004
2156	 0.306739903377512
2157	 0.306361089423196
2158	 0.305871427994787
2159	 0.305568147870406
2160	 0.305424788263117
2161	 0.305143399625017
2162	 0.30495069757186
2163	 0.304650118675124
2164	 0.304123362149006
2165	 0.303759437415218
2166	 0.303385741821866
2167	 0.303139460784361
2168	 0.303015825186255
2169	 0.3029588778789
2170	 0.302915775124518
2171	 0.302836508204085
2172	 0.302620805451607
2173	 0.302378041195399
2174	 0.302116546944613
2175	 0.301791557681452
2176	 0.301472087193461
2177	 0.301091721141636
2178	 0.300804547304638
2179	 0.300571741563548
2180	 0.300312847731228
2181	 0.300130636089476
2182	 0.299873505955077
2183	 0.299552385235698
2184	 0.299197607333065
2185	 0.298846816345858
2186	 0.298433321863302
2187	 0.297920993261443
2188	 0.297446255437969
2189	 0.296965107871451
2190	 0.296437393867138
2191	 0.295981773688072
2192	 0.2955194459564
2193	 0.295030852211157
2194	 0.294519499217901
2195	 0.29396764149646
2196	 0.293433487201802
2197	 0.292841927993025
2198	 0.292248790141517
2199	 0.291585783842082
2200	 0.290841494415461
2201	 0.290069543747365
2202	 0.28918779807015
2203	 0.288456730122176
2204	 0.287631713903238
2205	 0.287145755076092
2206	 0.286851317617289
2207	 0.286655019882057
2208	 0.286668956531428
2209	 0.286756659176774
2210	 0.286929402864629
2211	 0.287270280572349
2212	 0.287739572431322
2213	 0.288381091992551
2214	 0.289327968876287
2215	 0.290157547843039
2216	 0.291111154067368
2217	 0.292048000598447
2218	 0.292711458879329
2219	 0.293352221703806
2220	 0.29399614631168
2221	 0.294502421030871
2222	 0.295022117798962
2223	 0.295434254355431
2224	 0.295731208766807
2225	 0.295882645851519
2226	 0.296028794984916
2227	 0.296061121701992
2228	 0.296131495352687
2229	 0.296202630426228
2230	 0.296168443298318
2231	 0.296098163808359
2232	 0.296005405113472
2233	 0.29575749076277
2234	 0.295642293227562
2235	 0.295592041531836
2236	 0.295496572597104
2237	 0.29543187193899
2238	 0.295357554445841
2239	 0.295243899187163
2240	 0.295163561784962
2241	 0.29510664837934
2242	 0.295072037561835
2243	 0.295072672312591
2244	 0.295027166350609
2245	 0.295011482917788
2246	 0.294906097791331
2247	 0.294735217381634
2248	 0.294815032025333
2249	 0.294933169917347
2250	 0.294941684855052
2251	 0.2948904615168
2252	 0.294719720708732
2253	 0.294458561385899
2254	 0.294305325823939
2255	 0.294367509924006
2256	 0.294492395544724
2257	 0.294525323202482
2258	 0.294622877275317
2259	 0.294605214550379
2260	 0.294474288608827
2261	 0.294400194551586
2262	 0.294328465986662
2263	 0.294222018992685
2264	 0.294075589899364
2265	 0.293927074487351
2266	 0.293773524510066
2267	 0.293644018653955
2268	 0.293544886511505
2269	 0.293382481651172
2270	 0.293218311254459
2271	 0.292963877419237
2272	 0.292556210642979
2273	 0.292296608014423
2274	 0.29208448918479
2275	 0.291824796789361
2276	 0.291596424344326
2277	 0.291379901051654
2278	 0.291182478584652
2279	 0.290924608922168
2280	 0.290749672908037
2281	 0.290453392800135
2282	 0.29006523503038
2283	 0.289484821251827
2284	 0.288977727526946
2285	 0.288513259433372
2286	 0.288089070446132
2287	 0.287638901502556
2288	 0.287267246108263
2289	 0.28694286157233
2290	 0.286540857810201
2291	 0.286248064625031
2292	 0.285886371516641
2293	 0.285474912410791
2294	 0.285314470178339
2295	 0.285134787917737
2296	 0.284969018408509
2297	 0.284886981611452
2298	 0.284616057444282
2299	 0.2844068462157
2300	 0.284315219644721
2301	 0.284038605767084
2302	 0.283815533947854
2303	 0.283626607236078
2304	 0.283386472393626
2305	 0.283146194510826
2306	 0.282862045064749
2307	 0.282449642696348
2308	 0.282200898077589
2309	 0.281990623804324
2310	 0.281733717948846
2311	 0.281590172146078
2312	 0.281434991651477
2313	 0.281181854539395
2314	 0.280993697697601
2315	 0.280952811036658
2316	 0.280765331644921
2317	 0.280457311772436
2318	 0.280268086029216
2319	 0.280002807621753
2320	 0.279897265942432
2321	 0.279890810067469
2322	 0.279947501478025
2323	 0.280304177718557
2324	 0.280343240751824
2325	 0.280342814140788
2326	 0.280220541967894
2327	 0.279758893379154
2328	 0.279450637899034
2329	 0.279092099290804
2330	 0.27887934356134
2331	 0.278793170126377
2332	 0.278682855633721
2333	 0.278647787667812
2334	 0.278624874885136
2335	 0.278676976350852
2336	 0.278590171991223
2337	 0.278515349522282
2338	 0.278311849603144
2339	 0.277883763265845
2340	 0.277509620495798
2341	 0.277059793369122
2342	 0.276733831806665
2343	 0.276503741780758
2344	 0.276341910714271
2345	 0.276046327022602
2346	 0.275728497126297
2347	 0.275416701834472
2348	 0.274900353060524
2349	 0.27451015840154
2350	 0.274229716121751
2351	 0.273765147708488
2352	 0.27339590681523
2353	 0.273176301157109
2354	 0.272784438201864
2355	 0.272194711102357
2356	 0.27171035565126
2357	 0.271219735574561
2358	 0.270805963770144
2359	 0.270711565612997
2360	 0.270582738400236
2361	 0.270341473491273
2362	 0.269981678305006
2363	 0.269359925132782
2364	 0.268803314093056
2365	 0.268305244540193
2366	 0.26782553252747
2367	 0.267752366360387
2368	 0.267578195601547
2369	 0.26710166987535
2370	 0.266784202441008
2371	 0.266221097106392
2372	 0.265575483305009
2373	 0.265228825660077
2374	 0.264762895470016
2375	 0.264441341387005
2376	 0.263911618267638
2377	 0.262991006927118
2378	 0.262404920202163
2379	 0.261643557676662
2380	 0.260771681280276
2381	 0.260188497626629
2382	 0.259565516139865
2383	 0.258988039883089
2384	 0.258884318318093
2385	 0.258950235002419
2386	 0.258657158734544
2387	 0.25842428202841
2388	 0.257754803091796
2389	 0.25689814028147
2390	 0.256158756455369
2391	 0.255241327136156
2392	 0.254688040574677
2393	 0.254190613514641
2394	 0.25397991763203
2395	 0.253841340100268
2396	 0.253530755594465
2397	 0.253159461254254
2398	 0.252547401230886
2399	 0.251983306296545
2400	 0.251321813569146
2401	 0.250801989134143
2402	 0.250453307749677
2403	 0.249857853082143
2404	 0.249357108674943
2405	 0.249003300246674
2406	 0.248587526159282
2407	 0.248134393685672
2408	 0.247600697732681
2409	 0.246896190861068
2410	 0.245995086600684
2411	 0.24541458005869
2412	 0.244941977709155
2413	 0.244588524085452
2414	 0.244358116515878
2415	 0.243883266899688
2416	 0.243706694759964
2417	 0.243506126053122
2418	 0.243077040970788
2419	 0.242547896757375
2420	 0.241838100990466
2421	 0.240578366369341
2422	 0.239190043964586
2423	 0.238574099668713
2424	 0.237795969283078
2425	 0.237897237568622
2426	 0.237484610608751
2427	 0.236261236110121
2428	 0.235773188809419
2429	 0.235543927749341
2430	 0.235156852679722
2431	 0.235282208692364
2432	 0.234811766677018
2433	 0.233827857013167
2434	 0.232997010768896
2435	 0.231830403389498
2436	 0.230936496050533
2437	 0.230326942679212
2438	 0.229498764282749
2439	 0.228959818379426
2440	 0.228431929386244
2441	 0.2277492489022
2442	 0.227432087071502
2443	 0.227228327265643
2444	 0.22716295677443
2445	 0.226881522525943
2446	 0.22633708936819
2447	 0.226133275819964
2448	 0.225317621114778
2449	 0.224660236994245
2450	 0.224752501444942
2451	 0.224604710422165
2452	 0.224747712746297
2453	 0.22426652430799
2454	 0.223267436763767
2455	 0.222183477383338
2456	 0.220979346046669
2457	 0.220712365962132
2458	 0.220874012768312
2459	 0.220578168796859
2460	 0.220102836136846
2461	 0.219332359030349
2462	 0.21779213276557
2463	 0.216420827668241
2464	 0.215456953082761
2465	 0.215130721737643
2466	 0.215417318787991
2467	 0.215036430471549
2468	 0.214554393141583
2469	 0.214097609513087
2470	 0.213125240007195
2471	 0.213092369168483
2472	 0.212859810642935
2473	 0.211819244804394
2474	 0.211373741150067
2475	 0.210468339413992
2476	 0.209875512309687
2477	 0.210112747094585
2478	 0.209356713588272
2479	 0.208387841568084
2480	 0.207827094211222
2481	 0.206525706635526
2482	 0.205625704765757
2483	 0.206597120715297
2484	 0.20666949361635
2485	 0.206729301014285
2486	 0.207952922386894
2487	 0.207437221950581
2488	 0.206087788784552
2489	 0.205490117056083
2490	 0.204498074346406
2491	 0.203737545363072
2492	 0.204122098963767
2493	 0.204563930455946
2494	 0.204335763246349
2495	 0.203866570094388
2496	 0.204162211564517
2497	 0.203305786687442
2498	 0.202408197962859
2499	 0.202285263993575
2500	 0.200772484696808
