Wavelength	signature0026.asd
350	 0.179458100737876
351	 0.183506317029301
352	 0.174580624193565
353	 0.165822092443235
354	 0.173075983706708
355	 0.173689649164186
356	 0.175459745941044
357	 0.178501272214219
358	 0.176936791509156
359	 0.174966356554522
360	 0.174888628412064
361	 0.174833822718884
362	 0.168347861404204
363	 0.172650077088831
364	 0.17623171876597
365	 0.171236403462806
366	 0.172690150279502
367	 0.177218757593229
368	 0.178163485431871
369	 0.171997207659646
370	 0.173897849829154
371	 0.17437282444289
372	 0.172439400289703
373	 0.172692630820937
374	 0.174497999407792
375	 0.173685866835263
376	 0.171782779986741
377	 0.176384948692059
378	 0.173222804342843
379	 0.171649028773432
380	 0.176334462046995
381	 0.172272088167383
382	 0.172589189790567
383	 0.175111405882052
384	 0.174827558370361
385	 0.175046965821617
386	 0.17539989989855
387	 0.175093907695928
388	 0.173595723893004
389	 0.173858229067564
390	 0.173767491020186
391	 0.173430795893745
392	 0.175648817580061
393	 0.176409917840019
394	 0.177594120671707
395	 0.179391651771807
396	 0.175669484069758
397	 0.174943769058424
398	 0.176596468150906
399	 0.177353675488699
400	 0.176215801446496
401	 0.175423231049559
402	 0.17577494243118
403	 0.176832024119757
404	 0.17715869844394
405	 0.177108270882182
406	 0.176968886163794
407	 0.176652166448692
408	 0.177840640717565
409	 0.178257494105788
410	 0.176740286403855
411	 0.176950983143176
412	 0.176617006445632
413	 0.176453372927624
414	 0.177687052831685
415	 0.178039028158749
416	 0.178032018609886
417	 0.178019706618609
418	 0.178056164863948
419	 0.178047720066984
420	 0.178305802707618
421	 0.178837106765298
422	 0.179077813142033
423	 0.178869554819732
424	 0.17876384326136
425	 0.179286353079696
426	 0.180147393151016
427	 0.180744178637872
428	 0.180761082768751
429	 0.180276961533648
430	 0.180836750626538
431	 0.181649169441525
432	 0.182196689034415
433	 0.182679937641611
434	 0.18294712476138
435	 0.182976082437593
436	 0.182955214631526
437	 0.18360752792313
438	 0.184059124577755
439	 0.184284080606145
440	 0.184635659482577
441	 0.184994305097074
442	 0.185499668827267
443	 0.185832851185913
444	 0.185266332227211
445	 0.186225182526096
446	 0.187037858420481
447	 0.186712778067299
448	 0.188038512338665
449	 0.188709036368307
450	 0.188686922087474
451	 0.188784434787179
452	 0.189101139891637
453	 0.189821598838353
454	 0.190517870403347
455	 0.19032087977994
456	 0.190630098606794
457	 0.191217261414301
458	 0.191590822390682
459	 0.191285743242886
460	 0.19109882375067
461	 0.191606029692792
462	 0.192819018609125
463	 0.192652568488057
464	 0.192658817027328
465	 0.193189418876811
466	 0.193475326926595
467	 0.193681916579436
468	 0.193796063162264
469	 0.193897514929129
470	 0.194272847773417
471	 0.194758572967063
472	 0.195082962592102
473	 0.195107902241071
474	 0.195439549418058
475	 0.195585639651901
476	 0.195575494609125
477	 0.195838070622214
478	 0.196184608951857
479	 0.196399972498451
480	 0.196484616993255
481	 0.196846227368714
482	 0.196945053257968
483	 0.197049602544249
484	 0.197504556455139
485	 0.197862622680758
486	 0.198155703821096
487	 0.19848441702536
488	 0.19894483367406
489	 0.199037520696933
490	 0.199115671573089
491	 0.199475851376576
492	 0.200107055410372
493	 0.200780975522947
494	 0.200958569740866
495	 0.200474178109584
496	 0.201065071388217
497	 0.201426537060638
498	 0.201468531752954
499	 0.202034568865522
500	 0.20228740330125
501	 0.202490664905304
502	 0.202867471429209
503	 0.203270519873022
504	 0.203590536823514
505	 0.20387611819915
506	 0.204187210204798
507	 0.204314658060673
508	 0.204673443376072
509	 0.205141613425053
510	 0.205200650529489
511	 0.205552780030009
512	 0.205959176352042
513	 0.206186566602949
514	 0.206287601382882
515	 0.206701900309604
516	 0.20712663069935
517	 0.207193708722883
518	 0.207715224620642
519	 0.208035717631276
520	 0.208109509838772
521	 0.208492770043281
522	 0.208829242566525
523	 0.209059110097881
524	 0.209253531233795
525	 0.209681028867719
526	 0.209988078782879
527	 0.210260039317368
528	 0.210706587794317
529	 0.211145130154714
530	 0.211543999300353
531	 0.211870383938595
532	 0.21208956507388
533	 0.212549930037466
534	 0.213070708980875
535	 0.213485695789376
536	 0.213987699716242
537	 0.214481170401085
538	 0.2149235577371
539	 0.215314767993359
540	 0.215731004405457
541	 0.216294519999251
542	 0.216986769582651
543	 0.217616655818333
544	 0.218123161135303
545	 0.218707236041017
546	 0.21948827745492
547	 0.220105525014996
548	 0.220782899194951
549	 0.221620164654936
550	 0.222610119333167
551	 0.223536089120506
552	 0.224472031766058
553	 0.225482275448082
554	 0.22656430819313
555	 0.227524005770482
556	 0.228535184792297
557	 0.229771477373733
558	 0.230939577605429
559	 0.232018334330884
560	 0.233072664641074
561	 0.234226170516981
562	 0.235509516766701
563	 0.236822238070811
564	 0.238111630599845
565	 0.239465680196567
566	 0.24077996286927
567	 0.242108116995646
568	 0.24354892608371
569	 0.24513092939271
570	 0.246625744926931
571	 0.248003160875088
572	 0.249443457747201
573	 0.251079507918881
574	 0.252677079797507
575	 0.25414205065414
576	 0.255904925573756
577	 0.25766942237035
578	 0.259428161353531
579	 0.261257624545124
580	 0.262948143133166
581	 0.264707453552888
582	 0.26654775725686
583	 0.268206607744968
584	 0.269655164358022
585	 0.271105725229248
586	 0.272645169054851
587	 0.27377995843685
588	 0.275113454237539
589	 0.276558965188987
590	 0.277699235883462
591	 0.278891896874484
592	 0.28010744855795
593	 0.281251542763535
594	 0.282183070171644
595	 0.283147697486904
596	 0.284068874545302
597	 0.284850029600145
598	 0.285722247740003
599	 0.286499724391064
600	 0.287159675893662
601	 0.287802325352016
602	 0.288478886679992
603	 0.289250667207719
604	 0.290038135155575
605	 0.290487873086962
606	 0.290968016668895
607	 0.291533604018618
608	 0.292102793441579
609	 0.292485037533785
610	 0.292910664164218
611	 0.293455446731724
612	 0.294022307868342
613	 0.294371109448873
614	 0.294741718527294
615	 0.295285915259893
616	 0.295744054148637
617	 0.296107860966782
618	 0.296523777839789
619	 0.297142098297266
620	 0.29766678334245
621	 0.298102078463105
622	 0.298540443125811
623	 0.299137556858099
624	 0.299671501348778
625	 0.300118248262085
626	 0.300537519087569
627	 0.301078128572447
628	 0.301764515904857
629	 0.302449632063878
630	 0.302941336672827
631	 0.303431050733207
632	 0.304095233898113
633	 0.304893859718544
634	 0.305506854441206
635	 0.306193293732217
636	 0.306931492016302
637	 0.307658062549087
638	 0.308406711683295
639	 0.309224233699833
640	 0.310070793930084
641	 0.310858147872704
642	 0.311632336718637
643	 0.312366453901884
644	 0.313108754953747
645	 0.314050910216588
646	 0.314784061689895
647	 0.315417724919969
648	 0.316166428805333
649	 0.316988348053078
650	 0.31775801921232
651	 0.318460117929039
652	 0.319161182096053
653	 0.319764657518751
654	 0.320476613471683
655	 0.321338030428378
656	 0.321997855788472
657	 0.322690317882776
658	 0.323462952570562
659	 0.324291694560119
660	 0.325113852839051
661	 0.326010684713015
662	 0.32693740984739
663	 0.327756878018991
664	 0.328696295818009
665	 0.329681762599759
666	 0.33064158874572
667	 0.331618238618155
668	 0.332682849904806
669	 0.333695358881405
670	 0.334520902544695
671	 0.335487973831944
672	 0.336519720303682
673	 0.337507034979044
674	 0.338346364236545
675	 0.339168200555103
676	 0.340055498681135
677	 0.340999343452005
678	 0.341799727319352
679	 0.342562871337599
680	 0.343384206532437
681	 0.344310413988622
682	 0.345113679086915
683	 0.345990223093265
684	 0.346960919493012
685	 0.3478453412651
686	 0.348682607019311
687	 0.349590808940276
688	 0.350611325222032
689	 0.351557244239986
690	 0.352516357287826
691	 0.35352940961032
692	 0.354592415247295
693	 0.355552479833109
694	 0.35646443503912
695	 0.357381761983242
696	 0.358336351841786
697	 0.359284558529458
698	 0.360224374305391
699	 0.36114800692978
700	 0.362013342863201
701	 0.362854491049064
702	 0.363684546895458
703	 0.364492627825667
704	 0.365177914676428
705	 0.365870870753806
706	 0.366599288126357
707	 0.367274311448575
708	 0.368058503202882
709	 0.368776007672483
710	 0.369337377738909
711	 0.370017679541429
712	 0.370690488595215
713	 0.371331564812224
714	 0.371952704382799
715	 0.372550004623929
716	 0.37315857334388
717	 0.373775996233998
718	 0.37436430318235
719	 0.374944933201881
720	 0.375499302444544
721	 0.376008906159512
722	 0.376460420424447
723	 0.376937867609366
724	 0.377440125048656
725	 0.377931553960915
726	 0.378395605892086
727	 0.378842081700006
728	 0.379286217566809
729	 0.379740737307496
730	 0.380134365397299
731	 0.380489605046326
732	 0.380845033386201
733	 0.381238933203067
734	 0.381642394546789
735	 0.381995767827776
736	 0.382276365495464
737	 0.382662694162593
738	 0.382972584087943
739	 0.383213471619424
740	 0.383526578975425
741	 0.383814954293495
742	 0.384151142399392
743	 0.384523831330054
744	 0.384759686348199
745	 0.384990599348565
746	 0.385232284877165
747	 0.385470226166539
748	 0.385703888172883
749	 0.385888035216798
750	 0.386072183788904
751	 0.386337386435876
752	 0.386573525698173
753	 0.386736713007485
754	 0.386854441162088
755	 0.387026099502247
756	 0.387138402953809
757	 0.387283581570403
758	 0.387485546135014
759	 0.387464657550773
760	 0.387534157756124
761	 0.387670842257817
762	 0.387737805711682
763	 0.387787357277876
764	 0.387884332030822
765	 0.388005765452953
766	 0.388056616551413
767	 0.388062469623904
768	 0.388060340464426
769	 0.388084901912066
770	 0.388162800415284
771	 0.388218902746963
772	 0.38825837313585
773	 0.388294418744144
774	 0.388275257252756
775	 0.388234044375463
776	 0.388192289957701
777	 0.388166236895667
778	 0.388199803968468
779	 0.388168985693583
780	 0.388080190515595
781	 0.388095981246482
782	 0.388105953784394
783	 0.388072670999981
784	 0.38800906887248
785	 0.388011631460122
786	 0.387959734908581
787	 0.387871511384316
788	 0.387808928818461
789	 0.387805237790931
790	 0.387708346803765
791	 0.387564355170629
792	 0.387530011454563
793	 0.387434978764232
794	 0.387349757835706
795	 0.387280026620503
796	 0.387123866878641
797	 0.38710424544336
798	 0.387057577934611
799	 0.386872722990237
800	 0.386772193973825
801	 0.386639556090892
802	 0.386481091048795
803	 0.386344423214577
804	 0.386270039448583
805	 0.386159167785801
806	 0.386014201056518
807	 0.385890481988495
808	 0.385621028398457
809	 0.385483303967359
810	 0.385509111609119
811	 0.385392288401539
812	 0.385283426581134
813	 0.385143043805758
814	 0.384980220184313
815	 0.384990546118234
816	 0.384848739039936
817	 0.384683860931317
818	 0.384663583151988
819	 0.384505675618334
820	 0.384371850089648
821	 0.384243512307442
822	 0.384029498742183
823	 0.383868977392479
824	 0.383803352350919
825	 0.383782896497325
826	 0.383689299766632
827	 0.383577311661621
828	 0.383507887239022
829	 0.383466081733245
830	 0.383319161005289
831	 0.383209928251607
832	 0.383077675208907
833	 0.382871263151104
834	 0.382691660727239
835	 0.382620914345272
836	 0.382577324457586
837	 0.382465819735511
838	 0.382462176361814
839	 0.382347464477501
840	 0.382159376412647
841	 0.38207828915485
842	 0.382003620263929
843	 0.381940419693513
844	 0.38187193254709
845	 0.381762901445578
846	 0.381724495693078
847	 0.381646712255958
848	 0.381511541899408
849	 0.381489429156745
850	 0.38140683278869
851	 0.381259110547743
852	 0.38112033450709
853	 0.381158734685321
854	 0.381096217536454
855	 0.380988877290348
856	 0.380959289803869
857	 0.380934472285463
858	 0.380815592188893
859	 0.380706702891698
860	 0.380765621311324
861	 0.380853333836501
862	 0.380879713790553
863	 0.3808278868689
864	 0.38075031883398
865	 0.380760434269652
866	 0.380770953346955
867	 0.380734030046307
868	 0.380673283389895
869	 0.380594518230194
870	 0.380613563842924
871	 0.38072914090403
872	 0.380748392440732
873	 0.38069074366488
874	 0.380725142018522
875	 0.380891146437772
876	 0.380885623184334
877	 0.380811543147599
878	 0.380830537804642
879	 0.380998067045818
880	 0.38099931623508
881	 0.380972295962634
882	 0.38102344005921
883	 0.381186689101072
884	 0.38126183678948
885	 0.381346507824225
886	 0.381384931809254
887	 0.381324076753918
888	 0.381581971632472
889	 0.381701085139689
890	 0.381647255064584
891	 0.381699750535116
892	 0.38183980988846
893	 0.382005348471832
894	 0.38213268248922
895	 0.382185879563372
896	 0.38228664134944
897	 0.382412569727119
898	 0.382532116559337
899	 0.38263256725089
900	 0.382777531086852
901	 0.383001261217425
902	 0.383232644434186
903	 0.38328903797163
904	 0.383432182675291
905	 0.383616382454695
906	 0.383801768165649
907	 0.38406127953665
908	 0.384251893745352
909	 0.384400984159566
910	 0.384576009574812
911	 0.384833729315725
912	 0.38502980265765
913	 0.385162389230615
914	 0.385285510992352
915	 0.385475089406506
916	 0.385715829108747
917	 0.385943341273805
918	 0.386140600987206
919	 0.386471141121506
920	 0.386781629277352
921	 0.386944971664855
922	 0.386968096108154
923	 0.387217404007052
924	 0.387525906691304
925	 0.387792465158321
926	 0.387993390346598
927	 0.388299987689447
928	 0.388449201038832
929	 0.388651345317051
930	 0.389111027022827
931	 0.389249037070579
932	 0.389466514323786
933	 0.389674089260419
934	 0.389713191745393
935	 0.3900855280829
936	 0.390235727961826
937	 0.390347739415008
938	 0.390743129543211
939	 0.390742247053459
940	 0.391050598833467
941	 0.391452170150323
942	 0.391491311655686
943	 0.391748984994244
944	 0.391946590022542
945	 0.392157618858777
946	 0.392534467490218
947	 0.39279568773027
948	 0.393028671184265
949	 0.393410261599138
950	 0.393984934246555
951	 0.394137714584753
952	 0.394326688532845
953	 0.394683080828664
954	 0.395113705934887
955	 0.395374822338031
956	 0.395737685112206
957	 0.396099230489612
958	 0.396269190694473
959	 0.396375049238508
960	 0.396617563482519
961	 0.396998772837448
962	 0.397395767606877
963	 0.397581359751121
964	 0.398146785889753
965	 0.398800966362206
966	 0.399105675195924
967	 0.399248001500342
968	 0.399583239766781
969	 0.400130194601612
970	 0.400798273566424
971	 0.401609128480274
972	 0.401981424489609
973	 0.402289465934298
974	 0.40300555615321
975	 0.404112189438175
976	 0.404209959434428
977	 0.40434351951725
978	 0.405192260872434
979	 0.405492821752382
980	 0.406147030265583
981	 0.406662359763505
982	 0.406844192755851
983	 0.407389584773003
984	 0.408041705601961
985	 0.408599121324782
986	 0.408841390407312
987	 0.408687072948385
988	 0.409847318100723
989	 0.410426423519334
990	 0.410164895099314
991	 0.410766958205196
992	 0.411291596605443
993	 0.411704873910544
994	 0.412050710942464
995	 0.412407474657529
996	 0.413038787201775
997	 0.413489533708487
998	 0.413877323756412
999	 0.414546757587746
1000	 0.415139213417531
1001	 0.398152561532993
1002	 0.398648601814091
1003	 0.399185731124411
1004	 0.399576463414004
1005	 0.399766079585141
1006	 0.39996450553515
1007	 0.400114313643268
1008	 0.400248472124364
1009	 0.400519726340602
1010	 0.400876018304315
1011	 0.4012739270636
1012	 0.401555428934265
1013	 0.401929591717635
1014	 0.402376673080423
1015	 0.402564453788383
1016	 0.402752384002527
1017	 0.402976083199143
1018	 0.403060050346348
1019	 0.403186847269426
1020	 0.40347462452259
1021	 0.403881168356424
1022	 0.404214445909028
1023	 0.404501550721155
1024	 0.404812041318066
1025	 0.405162644509721
1026	 0.405354562962279
1027	 0.405473434663662
1028	 0.405637731293495
1029	 0.405762910114546
1030	 0.405926687908901
1031	 0.406228419564041
1032	 0.406572259489555
1033	 0.406844403218686
1034	 0.40708082581098
1035	 0.407303743638687
1036	 0.407533052136185
1037	 0.407651299373118
1038	 0.407824024803555
1039	 0.408020495443418
1040	 0.408247223700639
1041	 0.408357938452952
1042	 0.408626375979693
1043	 0.409003198940179
1044	 0.409294285331359
1045	 0.409510184480369
1046	 0.409762941625477
1047	 0.409989258325912
1048	 0.410180961823128
1049	 0.410547345351869
1050	 0.410907438317239
1051	 0.411058920003766
1052	 0.411184447764333
1053	 0.411445131846829
1054	 0.411738884318607
1055	 0.412096058605357
1056	 0.412497461102873
1057	 0.412820494915905
1058	 0.413000957451476
1059	 0.413148488695699
1060	 0.413229051052836
1061	 0.413458412188323
1062	 0.413871027827034
1063	 0.414177992768354
1064	 0.414532743850785
1065	 0.414837026408131
1066	 0.415093579461277
1067	 0.415465107499232
1068	 0.41573654226083
1069	 0.415971854747068
1070	 0.416254995075888
1071	 0.416536563234959
1072	 0.416718036222934
1073	 0.416959643637812
1074	 0.417253586505289
1075	 0.417530205733049
1076	 0.417807897024342
1077	 0.418059449854794
1078	 0.418286635319198
1079	 0.418522199098184
1080	 0.418742507098155
1081	 0.41894598675309
1082	 0.41924096237419
1083	 0.419534219621308
1084	 0.419840705335958
1085	 0.420084579063002
1086	 0.420338436324057
1087	 0.420579391344812
1088	 0.420775018847092
1089	 0.420966560566543
1090	 0.421171958598962
1091	 0.421357805702481
1092	 0.421534366043723
1093	 0.421772142681023
1094	 0.422028647281345
1095	 0.42228865051248
1096	 0.422581997316798
1097	 0.422794375845683
1098	 0.422993253384606
1099	 0.42315342250622
1100	 0.42337869148446
1101	 0.423612868180612
1102	 0.423814025577399
1103	 0.424047558510286
1104	 0.424235015185374
1105	 0.424395052891453
1106	 0.424617337773666
1107	 0.424803959167955
1108	 0.42502112786959
1109	 0.425239981416377
1110	 0.425408401317018
1111	 0.425636368428099
1112	 0.425884678290566
1113	 0.426091147637297
1114	 0.426241175807374
1115	 0.426449991710965
1116	 0.426692121091901
1117	 0.426907882920151
1118	 0.427145205485076
1119	 0.427363128630261
1120	 0.4275741744693
1121	 0.427716955900503
1122	 0.427904902124001
1123	 0.428174489994763
1124	 0.428436229065908
1125	 0.428670383501525
1126	 0.428851040613222
1127	 0.428995910366045
1128	 0.429174341725096
1129	 0.429377002771087
1130	 0.429611455236667
1131	 0.429938076912968
1132	 0.430195343770348
1133	 0.430462408726303
1134	 0.430670146313116
1135	 0.430795823002782
1136	 0.430971593636529
1137	 0.431130346550739
1138	 0.431314925100257
1139	 0.431544076308336
1140	 0.431779562299761
1141	 0.431972060960529
1142	 0.432107973067482
1143	 0.432213497541374
1144	 0.432314054007668
1145	 0.432428928116912
1146	 0.432539460087115
1147	 0.432664603299246
1148	 0.432820770237598
1149	 0.432940770160973
1150	 0.433024823491958
1151	 0.433143141941388
1152	 0.433260345743984
1153	 0.433381224657828
1154	 0.433507673457275
1155	 0.433676259708764
1156	 0.433863145846856
1157	 0.434049143156306
1158	 0.434283491423598
1159	 0.434477693505644
1160	 0.434640048232303
1161	 0.434823570056834
1162	 0.435034498508032
1163	 0.435258117937432
1164	 0.435508728115312
1165	 0.435792273009191
1166	 0.4360645188378
1167	 0.436368899495847
1168	 0.436636587456657
1169	 0.436883665274337
1170	 0.437139611101821
1171	 0.437385884772076
1172	 0.43762878456257
1173	 0.437888752910482
1174	 0.438132596697654
1175	 0.438379077382388
1176	 0.438557113233063
1177	 0.438816808907877
1178	 0.43904638304701
1179	 0.439257580155955
1180	 0.439547583838644
1181	 0.439816865432828
1182	 0.4401085256583
1183	 0.440334180463879
1184	 0.440526773984997
1185	 0.440761355578095
1186	 0.440977276982202
1187	 0.441180065929934
1188	 0.441459688016184
1189	 0.441643633024325
1190	 0.441696345892804
1191	 0.441834479610346
1192	 0.441979594105976
1193	 0.442132003277662
1194	 0.442290132628996
1195	 0.442522598199669
1196	 0.442705432651851
1197	 0.442897337467294
1198	 0.443079084438589
1199	 0.443265867561876
1200	 0.443434078200327
1201	 0.443590362115435
1202	 0.443739802713988
1203	 0.443865201139669
1204	 0.444030697976457
1205	 0.444217450651162
1206	 0.444376646332181
1207	 0.444534539006187
1208	 0.444708421050792
1209	 0.444883547718345
1210	 0.445040076398915
1211	 0.445210178584824
1212	 0.44537604980341
1213	 0.445541644620125
1214	 0.445657336807179
1215	 0.445792525570408
1216	 0.445869035874643
1217	 0.445969115931858
1218	 0.446022636459926
1219	 0.446129415463366
1220	 0.446289133947473
1221	 0.446396955210872
1222	 0.446518857854167
1223	 0.44656505978779
1224	 0.446525261640411
1225	 0.446554528067185
1226	 0.446578398673238
1227	 0.446598298792669
1228	 0.446638012558979
1229	 0.446694031461328
1230	 0.446724492974495
1231	 0.446782757739704
1232	 0.446901766048897
1233	 0.446999387417085
1234	 0.447111506803477
1235	 0.447171519515385
1236	 0.447262877946824
1237	 0.447350881921888
1238	 0.447462641846824
1239	 0.447587228767837
1240	 0.44771052672261
1241	 0.447836742751956
1242	 0.447990401075521
1243	 0.448153440152665
1244	 0.448326110288419
1245	 0.448543494278995
1246	 0.448726345899504
1247	 0.448898117115116
1248	 0.449063635675391
1249	 0.449235742692591
1250	 0.449372965996628
1251	 0.449479797701916
1252	 0.449591567889483
1253	 0.449681110070303
1254	 0.449769906044947
1255	 0.449856927672014
1256	 0.449928732550089
1257	 0.450070906432777
1258	 0.450251294866997
1259	 0.450376613077185
1260	 0.450518761878085
1261	 0.450673015839097
1262	 0.450809655825381
1263	 0.450913695917667
1264	 0.451035237574329
1265	 0.451153049421874
1266	 0.451231268188177
1267	 0.451290926269002
1268	 0.451382012032812
1269	 0.451437239973527
1270	 0.45139723532926
1271	 0.451417483499382
1272	 0.451513065543961
1273	 0.451535022475016
1274	 0.451507150504718
1275	 0.451508269586483
1276	 0.451501943212869
1277	 0.451471348435301
1278	 0.45143641143094
1279	 0.45144158504846
1280	 0.451358764345652
1281	 0.451194647569049
1282	 0.45109766744742
1283	 0.451004325145917
1284	 0.450890547543504
1285	 0.450806359846943
1286	 0.450670084445231
1287	 0.450473012127264
1288	 0.450307225090787
1289	 0.45014593561098
1290	 0.449966197142064
1291	 0.449765029880095
1292	 0.449593975591076
1293	 0.44941090635333
1294	 0.449253890221745
1295	 0.449166707994892
1296	 0.449019585756548
1297	 0.448864226423381
1298	 0.448681627882039
1299	 0.448471290007541
1300	 0.448207157960659
1301	 0.447984878293402
1302	 0.447759633825537
1303	 0.447536035841342
1304	 0.447324205811814
1305	 0.447110647797828
1306	 0.446854492141474
1307	 0.44670226085262
1308	 0.446641373718454
1309	 0.446477926420161
1310	 0.446340721665943
1311	 0.446162983767521
1312	 0.445860531183347
1313	 0.445679354960055
1314	 0.445588207849195
1315	 0.445438012713511
1316	 0.445299900597441
1317	 0.445150749724052
1318	 0.444987537206652
1319	 0.444803617234097
1320	 0.444626755490088
1321	 0.444424271233228
1322	 0.444152089873476
1323	 0.443922594440661
1324	 0.443696175991371
1325	 0.443499231796143
1326	 0.443321617209433
1327	 0.443144211813239
1328	 0.442949736581433
1329	 0.44274831192809
1330	 0.442544236912483
1331	 0.442345279485992
1332	 0.442116514436708
1333	 0.441867158549486
1334	 0.44163256088966
1335	 0.441365662109281
1336	 0.441133746855094
1337	 0.440950690212924
1338	 0.440721502421341
1339	 0.440511198127866
1340	 0.440239161939349
1341	 0.439943348045566
1342	 0.439592232380866
1343	 0.439220664361115
1344	 0.438764774297417
1345	 0.438245621727623
1346	 0.437671898057141
1347	 0.437037554778024
1348	 0.436340127629927
1349	 0.435562459961713
1350	 0.434784734788256
1351	 0.433915409272426
1352	 0.432975981700489
1353	 0.432069779643716
1354	 0.431210970114883
1355	 0.430425838944182
1356	 0.429712112327017
1357	 0.429009981221596
1358	 0.428346604498782
1359	 0.42772959268705
1360	 0.427160988257529
1361	 0.426584353450681
1362	 0.426114963401032
1363	 0.425502809500094
1364	 0.424872496738718
1365	 0.424141520746891
1366	 0.423307668648343
1367	 0.422456241126405
1368	 0.421620050464964
1369	 0.420612901028154
1370	 0.419592358629891
1371	 0.418361165356401
1372	 0.416998417156845
1373	 0.415437163931413
1374	 0.413731828243677
1375	 0.411828355478592
1376	 0.409714627336692
1377	 0.407446267897465
1378	 0.404958538418276
1379	 0.402340957223414
1380	 0.399662201632639
1381	 0.396871816185766
1382	 0.394058450027914
1383	 0.391298464581894
1384	 0.388606117919847
1385	 0.385860335308469
1386	 0.383394019636786
1387	 0.380998456441815
1388	 0.378923795331984
1389	 0.37701875601046
1390	 0.37541155290485
1391	 0.374063402719728
1392	 0.372924777528929
1393	 0.372071158971762
1394	 0.371300511637806
1395	 0.370796095840014
1396	 0.370246928833867
1397	 0.369872834671831
1398	 0.369349259628631
1399	 0.368870613300027
1400	 0.368222022155596
1401	 0.367574112781189
1402	 0.366633708906313
1403	 0.365587751513183
1404	 0.364233486615808
1405	 0.362624770151784
1406	 0.36075984082762
1407	 0.358545292883497
1408	 0.356231686797412
1409	 0.353687394436421
1410	 0.351267523615264
1411	 0.349042929804167
1412	 0.347261110374518
1413	 0.346179218862463
1414	 0.345742786863867
1415	 0.346265716687427
1416	 0.347431117264246
1417	 0.349017720403941
1418	 0.351449910986194
1419	 0.353688801156548
1420	 0.356459080528579
1421	 0.358719737830535
1422	 0.361043729132025
1423	 0.362949258570168
1424	 0.364559922480035
1425	 0.366011731257876
1426	 0.367167836713059
1427	 0.368314745046818
1428	 0.369251413370729
1429	 0.370228141335348
1430	 0.371180366192378
1431	 0.372048220574598
1432	 0.372854606474194
1433	 0.373626002551366
1434	 0.374297257062651
1435	 0.374990726524608
1436	 0.375668883332476
1437	 0.376324945176511
1438	 0.376972420018877
1439	 0.377596683111834
1440	 0.378194077068096
1441	 0.378788043011954
1442	 0.379365586447332
1443	 0.379932195765976
1444	 0.38048317437638
1445	 0.381032437260736
1446	 0.381593136784967
1447	 0.382067850476422
1448	 0.38251066761535
1449	 0.382954534073058
1450	 0.38332237911379
1451	 0.383685766470869
1452	 0.384117494067899
1453	 0.384487339839817
1454	 0.384838067782271
1455	 0.385212984802628
1456	 0.385494316918661
1457	 0.385688368521669
1458	 0.385905346082448
1459	 0.386076788189355
1460	 0.386283859101502
1461	 0.386478511640362
1462	 0.386712950179654
1463	 0.386978112487343
1464	 0.387243095574845
1465	 0.387512458982767
1466	 0.38782338618372
1467	 0.388148180998584
1468	 0.388496182235957
1469	 0.388873512323392
1470	 0.38928789642487
1471	 0.389721368649718
1472	 0.390192870849802
1473	 0.390735223093451
1474	 0.391251712294165
1475	 0.391761591199655
1476	 0.392308168675748
1477	 0.392890666346552
1478	 0.393440784109413
1479	 0.393996231668309
1480	 0.394559422582223
1481	 0.395103355289359
1482	 0.395658040785337
1483	 0.396262621095053
1484	 0.396819751584983
1485	 0.397313892382881
1486	 0.397848576028835
1487	 0.39838290119612
1488	 0.398925029807229
1489	 0.399543433540635
1490	 0.400094052791557
1491	 0.400601500499049
1492	 0.4011008617616
1493	 0.401596755568236
1494	 0.402003559429999
1495	 0.402456186494065
1496	 0.402902028188669
1497	 0.403314002911142
1498	 0.403764474780137
1499	 0.404197348999978
1500	 0.404588664236626
1501	 0.405007971775556
1502	 0.405420369042142
1503	 0.405798870589927
1504	 0.406220723921093
1505	 0.40663447993323
1506	 0.406997431312547
1507	 0.40737526845978
1508	 0.407756455960762
1509	 0.40813370796049
1510	 0.408502291601666
1511	 0.408866935431856
1512	 0.409240310129038
1513	 0.409587379484798
1514	 0.409913911382547
1515	 0.4102395241735
1516	 0.410560310436764
1517	 0.410863052156305
1518	 0.411136421589128
1519	 0.411446910723542
1520	 0.411760275959382
1521	 0.412076313153166
1522	 0.41243951364173
1523	 0.412733546638106
1524	 0.4129789183711
1525	 0.413256768653405
1526	 0.413521995877185
1527	 0.413783123457634
1528	 0.414068292534678
1529	 0.414315767394074
1530	 0.414527696315404
1531	 0.41475156153625
1532	 0.414957869715598
1533	 0.415182880797273
1534	 0.415421716951772
1535	 0.415644700076782
1536	 0.415872958163258
1537	 0.416099609147939
1538	 0.416309391550202
1539	 0.416527797259767
1540	 0.416768025169501
1541	 0.416977164253913
1542	 0.417174531435245
1543	 0.417358899738501
1544	 0.417514080320514
1545	 0.417681290488571
1546	 0.41784810117536
1547	 0.418011570031362
1548	 0.418168309613856
1549	 0.4183347164579
1550	 0.418500136331254
1551	 0.41866741221589
1552	 0.418861759154857
1553	 0.419025335275579
1554	 0.419146556210386
1555	 0.419317405940651
1556	 0.419505585525447
1557	 0.419679604776509
1558	 0.419947697465056
1559	 0.42007517623744
1560	 0.420041664443992
1561	 0.420126265086639
1562	 0.420171738627743
1563	 0.42027803183144
1564	 0.420539193934075
1565	 0.420708617634755
1566	 0.420829532689274
1567	 0.420960526077767
1568	 0.42105143996216
1569	 0.421173915838466
1570	 0.421331490653909
1571	 0.421470582887346
1572	 0.421629764880291
1573	 0.421757098225235
1574	 0.421867225432522
1575	 0.421933952844422
1576	 0.422035788367964
1577	 0.422127843980707
1578	 0.422248974978074
1579	 0.422397159213751
1580	 0.42250853982184
1581	 0.422627336965291
1582	 0.422750121525084
1583	 0.422844428585409
1584	 0.422933820881799
1585	 0.423046744850447
1586	 0.423154891255409
1587	 0.423275286395766
1588	 0.423429716780516
1589	 0.423561389924918
1590	 0.423649331201387
1591	 0.423742288550319
1592	 0.423830174558932
1593	 0.423909699718971
1594	 0.424019902375407
1595	 0.424111460275087
1596	 0.424192347412052
1597	 0.424300028001351
1598	 0.424428678439536
1599	 0.42457135043579
1600	 0.424711776411339
1601	 0.424827917795698
1602	 0.424913192769632
1603	 0.425008906212082
1604	 0.425099173100502
1605	 0.425181723765149
1606	 0.425262222537517
1607	 0.425336001823637
1608	 0.425387798926317
1609	 0.425424206945557
1610	 0.425484401365157
1611	 0.425522365199189
1612	 0.425584310401033
1613	 0.425700179789476
1614	 0.425802530221785
1615	 0.425909753866671
1616	 0.426018653701712
1617	 0.426120151547277
1618	 0.42621105379029
1619	 0.426298856069359
1620	 0.426358415055805
1621	 0.426398286065825
1622	 0.426443285254231
1623	 0.426465757706412
1624	 0.426516247116354
1625	 0.426584606533172
1626	 0.426626533489954
1627	 0.426660343726106
1628	 0.426727587832878
1629	 0.426762793360856
1630	 0.426793956557447
1631	 0.426892482745665
1632	 0.427037085435367
1633	 0.427147942113044
1634	 0.427278159848038
1635	 0.427389014113685
1636	 0.427398902109892
1637	 0.427412605594306
1638	 0.427435714018666
1639	 0.427451623670943
1640	 0.427512528390098
1641	 0.427558176496022
1642	 0.427600860592116
1643	 0.427652153018309
1644	 0.427712176742693
1645	 0.42775172860455
1646	 0.427786177233539
1647	 0.427821972758695
1648	 0.427833507022426
1649	 0.427853899211893
1650	 0.427877568770017
1651	 0.427915634733881
1652	 0.427964181527153
1653	 0.428011124467646
1654	 0.428105576812219
1655	 0.428143573315852
1656	 0.428132477419002
1657	 0.428132373678653
1658	 0.42810025098446
1659	 0.428073641994675
1660	 0.428037971827714
1661	 0.428035586822976
1662	 0.428059587904058
1663	 0.428064440157046
1664	 0.428113160708937
1665	 0.428114176217071
1666	 0.428053201977719
1667	 0.428014078590017
1668	 0.42796857812108
1669	 0.427919578848782
1670	 0.427878863931077
1671	 0.427829626500394
1672	 0.427779744253903
1673	 0.427708479613691
1674	 0.427602641052108
1675	 0.42753052458714
1676	 0.427421359373431
1677	 0.427390271446621
1678	 0.42749132686748
1679	 0.427475396410946
1680	 0.427434366931627
1681	 0.42738684621351
1682	 0.427262346324099
1683	 0.427157419922172
1684	 0.427052625333116
1685	 0.426985834986302
1686	 0.426926624142215
1687	 0.426856646375053
1688	 0.426843311855491
1689	 0.426785470864902
1690	 0.426651843295635
1691	 0.426590394990806
1692	 0.426565318780154
1693	 0.426524936631661
1694	 0.426527697222152
1695	 0.426480489955106
1696	 0.426393752970422
1697	 0.426321714085109
1698	 0.426257272628743
1699	 0.42614619845336
1700	 0.425996122701866
1701	 0.425889989513946
1702	 0.425759495593155
1703	 0.425661484908549
1704	 0.425628381683249
1705	 0.42553513743642
1706	 0.425419678715238
1707	 0.425302830654332
1708	 0.425175633578601
1709	 0.425032160828635
1710	 0.424858684487845
1711	 0.424714351316888
1712	 0.424574559914624
1713	 0.424426400979694
1714	 0.424294504383055
1715	 0.424154002911149
1716	 0.4239964859297
1717	 0.423842825316434
1718	 0.423714978070099
1719	 0.423496580695719
1720	 0.423276961958299
1721	 0.423006600158804
1722	 0.422693027753861
1723	 0.422481058390119
1724	 0.422248329323464
1725	 0.421978456217426
1726	 0.4218009652585
1727	 0.421545494503872
1728	 0.421348618443898
1729	 0.421214025770242
1730	 0.421043897157269
1731	 0.421007805545495
1732	 0.420792476781712
1733	 0.420443800750591
1734	 0.4201888425862
1735	 0.41981281363497
1736	 0.419523309266106
1737	 0.41935615163173
1738	 0.419138483433438
1739	 0.418879195096514
1740	 0.418664776073812
1741	 0.418528506238869
1742	 0.418300164984541
1743	 0.418033913557034
1744	 0.417790711961798
1745	 0.417484716456189
1746	 0.417213990321755
1747	 0.417001380056943
1748	 0.416743294375434
1749	 0.416455547755321
1750	 0.41617836440345
1751	 0.415910460473064
1752	 0.415626841873082
1753	 0.415310539414525
1754	 0.415030189926638
1755	 0.41476646998421
1756	 0.414464130682124
1757	 0.414176118420134
1758	 0.413873932604599
1759	 0.413511407927524
1760	 0.413252586819151
1761	 0.413017576946752
1762	 0.412767410572488
1763	 0.412481521014388
1764	 0.41218833926628
1765	 0.411898575633019
1766	 0.411594836056662
1767	 0.411344123345383
1768	 0.411080516671352
1769	 0.410714520702289
1770	 0.410406711369111
1771	 0.410126976560903
1772	 0.409844659494743
1773	 0.409648515075227
1774	 0.409405361525217
1775	 0.409131387332881
1776	 0.408912199553134
1777	 0.408642095120974
1778	 0.40833350813795
1779	 0.408065582765886
1780	 0.407783574277174
1781	 0.40752975907401
1782	 0.407357731125591
1783	 0.407148323491904
1784	 0.406881215090837
1785	 0.406686218111198
1786	 0.406552179575132
1787	 0.406373136811591
1788	 0.406211806324823
1789	 0.406042479110534
1790	 0.405831604446006
1791	 0.405654740810568
1792	 0.40550423272491
1793	 0.405339172649159
1794	 0.405174445462483
1795	 0.405079174667817
1796	 0.405025075481981
1797	 0.404962098177885
1798	 0.404897157245604
1799	 0.404805618510149
1800	 0.404689675853644
1801	 0.404545507407986
1802	 0.404459426528528
1803	 0.404428101821529
1804	 0.404346902995887
1805	 0.40432871154906
1806	 0.404261460117355
1807	 0.404111427435017
1808	 0.404066887309636
1809	 0.403994655155463
1810	 0.40397820770461
1811	 0.403967595190931
1812	 0.403800305149559
1813	 0.403643337908302
1814	 0.403504371127534
1815	 0.403378234880441
1816	 0.403291188296076
1817	 0.403232776952957
1818	 0.403148537767331
1819	 0.403057054156084
1820	 0.402933378384255
1821	 0.402830259954964
1822	 0.402841892264471
1823	 0.402835025530817
1824	 0.402821635780211
1825	 0.402894524045964
1826	 0.402832946230882
1827	 0.402741642880894
1828	 0.402740056887759
1829	 0.402584781010877
1830	 0.402488998380268
1831	 0.411332158236907
1832	 0.411442257588645
1833	 0.411351027219443
1834	 0.411243782524668
1835	 0.411040306519593
1836	 0.410930870520687
1837	 0.410795012164037
1838	 0.410699082127578
1839	 0.410732273648513
1840	 0.410685914856726
1841	 0.41048232145771
1842	 0.410185636469114
1843	 0.409976499737477
1844	 0.409703657911452
1845	 0.409506485699984
1846	 0.409410633350202
1847	 0.409304750655781
1848	 0.409184837768137
1849	 0.409101837149127
1850	 0.409111169014639
1851	 0.408965268134036
1852	 0.408818353095495
1853	 0.408608331626284
1854	 0.408310355079313
1855	 0.407918100221147
1856	 0.407503389432803
1857	 0.407076244062896
1858	 0.406526998950577
1859	 0.405915310716932
1860	 0.405227557195208
1861	 0.404409847706803
1862	 0.403424749351247
1863	 0.4023511621801
1864	 0.401191150050522
1865	 0.399894007094863
1866	 0.398480306781704
1867	 0.396933728468251
1868	 0.395274813107884
1869	 0.393404789367841
1870	 0.391434633104821
1871	 0.389323309212887
1872	 0.387146607672289
1873	 0.384963048615931
1874	 0.382608594868361
1875	 0.380211489449353
1876	 0.377675436518505
1877	 0.374978641903514
1878	 0.372217709495154
1879	 0.369403194103555
1880	 0.366424409250063
1881	 0.363337090727359
1882	 0.360165226943652
1883	 0.356732765234676
1884	 0.35312156315177
1885	 0.349487902566536
1886	 0.345619837052583
1887	 0.341562473038665
1888	 0.337414102193775
1889	 0.333151359107726
1890	 0.328692463339306
1891	 0.324160297885201
1892	 0.319476796163635
1893	 0.31474742975543
1894	 0.310049748300933
1895	 0.305260299763663
1896	 0.300541770954707
1897	 0.295939991439563
1898	 0.291288529930216
1899	 0.286760154753591
1900	 0.282461485995265
1901	 0.278332852408398
1902	 0.274470405176923
1903	 0.270799042389928
1904	 0.267192705524263
1905	 0.263945742235307
1906	 0.261012697314696
1907	 0.258350078750673
1908	 0.256127371617166
1909	 0.254230123067367
1910	 0.252418267415927
1911	 0.250902022159782
1912	 0.249618123051532
1913	 0.248747668198412
1914	 0.248005579076174
1915	 0.247520938042471
1916	 0.247377535771485
1917	 0.247299187758995
1918	 0.247408553959266
1919	 0.247765138019054
1920	 0.24823739765642
1921	 0.248734519538784
1922	 0.249380867291167
1923	 0.250028986522202
1924	 0.250747847230894
1925	 0.251407104309836
1926	 0.252166220236112
1927	 0.252914632544465
1928	 0.253721618813998
1929	 0.254552660819866
1930	 0.255279417424079
1931	 0.255968898935333
1932	 0.256614944132487
1933	 0.257276495526068
1934	 0.257938243270135
1935	 0.258636296268779
1936	 0.259300157646701
1937	 0.259934499718233
1938	 0.26056078652136
1939	 0.261235958050367
1940	 0.261878416713045
1941	 0.262442860493969
1942	 0.263038584391614
1943	 0.263617895766434
1944	 0.264284219529798
1945	 0.26498325981374
1946	 0.265799562388163
1947	 0.266516754845674
1948	 0.267266215618725
1949	 0.267880580868312
1950	 0.268425428178795
1951	 0.269041860953391
1952	 0.269595423995325
1953	 0.27023487133721
1954	 0.270996029132901
1955	 0.271669050483637
1956	 0.272439397033991
1957	 0.273237807118346
1958	 0.274009330660843
1959	 0.274817415450305
1960	 0.27558577523303
1961	 0.276317535163723
1962	 0.277052977007754
1963	 0.277737446800937
1964	 0.278441834971067
1965	 0.279299007806815
1966	 0.280126280572585
1967	 0.280991466921828
1968	 0.281929357578001
1969	 0.282792915339069
1970	 0.283594302757102
1971	 0.284430208200445
1972	 0.285253709661181
1973	 0.286082217981856
1974	 0.286922779834457
1975	 0.287721435074559
1976	 0.288535808496074
1977	 0.289448923142779
1978	 0.290375435439666
1979	 0.291292105406136
1980	 0.292259122220422
1981	 0.293138863118988
1982	 0.294027105053981
1983	 0.294879994381631
1984	 0.295785997777211
1985	 0.296705067555569
1986	 0.297635801598709
1987	 0.298607488146701
1988	 0.299534821780743
1989	 0.300442657045796
1990	 0.301342359920778
1991	 0.302255139176921
1992	 0.303254672639605
1993	 0.304185255695139
1994	 0.305107953265366
1995	 0.306008150970761
1996	 0.30680440713365
1997	 0.307663339440972
1998	 0.308548339670825
1999	 0.309455464354058
2000	 0.310385847461093
2001	 0.311345813851511
2002	 0.312263385738648
2003	 0.313210903730111
2004	 0.314113968402457
2005	 0.314976043319521
2006	 0.315870800936791
2007	 0.316755365582144
2008	 0.317645250432435
2009	 0.318566393892564
2010	 0.319442205548222
2011	 0.320329632800997
2012	 0.321130462363085
2013	 0.321840905076733
2014	 0.322562067075355
2015	 0.3232268736172
2016	 0.323918266349471
2017	 0.324607566069341
2018	 0.325410064885159
2019	 0.326267160005336
2020	 0.326990247655717
2021	 0.327700129973541
2022	 0.328402717347062
2023	 0.329050396102376
2024	 0.329601077694617
2025	 0.33022983992631
2026	 0.330867567104776
2027	 0.331493839970844
2028	 0.332131354167187
2029	 0.332758524130462
2030	 0.333406089094146
2031	 0.334007047242141
2032	 0.334594940053349
2033	 0.335177694571727
2034	 0.335707159414566
2035	 0.336186949861751
2036	 0.336667094544167
2037	 0.337122111515528
2038	 0.337573363933503
2039	 0.338005746338829
2040	 0.338450417186723
2041	 0.338870652812018
2042	 0.339311767498364
2043	 0.33980349108005
2044	 0.340234951651407
2045	 0.340580507023269
2046	 0.340970442827337
2047	 0.341322210943764
2048	 0.341678422853713
2049	 0.342147880313271
2050	 0.342557811797525
2051	 0.342906560076751
2052	 0.343178661571121
2053	 0.343498394550528
2054	 0.343782443457667
2055	 0.344096541374528
2056	 0.344418680393699
2057	 0.344807857761766
2058	 0.345273723834181
2059	 0.34562687425579
2060	 0.346070990222176
2061	 0.346426998000336
2062	 0.346674424793867
2063	 0.346968151645137
2064	 0.347306445470247
2065	 0.347659563535158
2066	 0.347985576523305
2067	 0.34834741291152
2068	 0.348634651837698
2069	 0.348875084570235
2070	 0.349113957656111
2071	 0.349249058788222
2072	 0.34950862693109
2073	 0.34982843057322
2074	 0.350122274085745
2075	 0.350481856080739
2076	 0.350855257012059
2077	 0.351128182314479
2078	 0.351311206101264
2079	 0.351412401029668
2080	 0.351536080747179
2081	 0.351709355531144
2082	 0.351881381820795
2083	 0.352060311500251
2084	 0.352337411215632
2085	 0.352519404615694
2086	 0.352597010817633
2087	 0.352762974336848
2088	 0.352940849682412
2089	 0.353125789147507
2090	 0.35339561610465
2091	 0.353592456233465
2092	 0.353773542482471
2093	 0.353888487103904
2094	 0.354003573235422
2095	 0.354144505887755
2096	 0.354318681026108
2097	 0.354509252777933
2098	 0.354640447449926
2099	 0.354738018079445
2100	 0.354847212150375
2101	 0.354949916604089
2102	 0.354997929108061
2103	 0.355066535970825
2104	 0.355034647052603
2105	 0.354864432734955
2106	 0.354768924260472
2107	 0.354638908919578
2108	 0.354527373669963
2109	 0.354406670179287
2110	 0.354381482591253
2111	 0.354358155258205
2112	 0.354320079612509
2113	 0.354378040522711
2114	 0.354377575352252
2115	 0.354425478259417
2116	 0.354502792232107
2117	 0.354576490269702
2118	 0.35468222944357
2119	 0.354749962003721
2120	 0.354769195273571
2121	 0.354825885696917
2122	 0.354952367198091
2123	 0.354991368328958
2124	 0.355070415222296
2125	 0.354999563787836
2126	 0.354828507879635
2127	 0.354543721587708
2128	 0.354240693731584
2129	 0.353915934128233
2130	 0.353665815673738
2131	 0.353473317092473
2132	 0.353154455863333
2133	 0.352829865410745
2134	 0.352395167241678
2135	 0.351893556241491
2136	 0.35124698155471
2137	 0.350501381357235
2138	 0.349714773874927
2139	 0.348816751428227
2140	 0.347841791398735
2141	 0.346816357006364
2142	 0.345686012941804
2143	 0.344423359283537
2144	 0.343102929369148
2145	 0.341712932227948
2146	 0.340273258422222
2147	 0.338707199065175
2148	 0.337178004203015
2149	 0.335678019054814
2150	 0.333957304429842
2151	 0.332200837171441
2152	 0.330421905401309
2153	 0.328813204323026
2154	 0.327161780958273
2155	 0.325806153143972
2156	 0.32473777519849
2157	 0.323567441568061
2158	 0.322460866877423
2159	 0.321438805075906
2160	 0.320427752887488
2161	 0.319538010798132
2162	 0.318746779154136
2163	 0.318055913688815
2164	 0.317437953162325
2165	 0.316944807855771
2166	 0.316635875753439
2167	 0.316346896498016
2168	 0.316115281038993
2169	 0.315981364176073
2170	 0.315918996119776
2171	 0.315845080556818
2172	 0.315772158067093
2173	 0.315648245986058
2174	 0.315457840425415
2175	 0.315142838244722
2176	 0.314914518634016
2177	 0.314729541828121
2178	 0.314448669257975
2179	 0.314188977612517
2180	 0.313811962489452
2181	 0.313408220088574
2182	 0.312779961642365
2183	 0.311980442470711
2184	 0.311157273029948
2185	 0.310128937815995
2186	 0.309118836010187
2187	 0.308152032308327
2188	 0.307068719049649
2189	 0.305873061101819
2190	 0.304644413250534
2191	 0.30339082693228
2192	 0.302024721983066
2193	 0.300633196177577
2194	 0.299204251844751
2195	 0.29768446700618
2196	 0.296084170301578
2197	 0.294360425306185
2198	 0.292568954168648
2199	 0.290577041780966
2200	 0.288412300311874
2201	 0.286161843732716
2202	 0.283600549092508
2203	 0.281350390369874
2204	 0.278851216103828
2205	 0.277017801078379
2206	 0.275315929728513
2207	 0.274349787925793
2208	 0.27380069674872
2209	 0.274031219496835
2210	 0.274974451975882
2211	 0.27646468303971
2212	 0.278858854181698
2213	 0.281452110166772
2214	 0.284896457557607
2215	 0.288077505976485
2216	 0.291541102055581
2217	 0.29484520920039
2218	 0.297996795538762
2219	 0.300832799805466
2220	 0.303365433498159
2221	 0.30568356881016
2222	 0.307740525201678
2223	 0.309477473440867
2224	 0.311004486569587
2225	 0.312343943428191
2226	 0.313374983393697
2227	 0.314030363100501
2228	 0.314670495349667
2229	 0.315096898963477
2230	 0.315409597735393
2231	 0.315566758395735
2232	 0.315628871389313
2233	 0.315472641421519
2234	 0.315381703089277
2235	 0.315173077804881
2236	 0.315050641846661
2237	 0.314939387255037
2238	 0.314850264843786
2239	 0.314774770246052
2240	 0.314807101969447
2241	 0.314867111460081
2242	 0.314997132189484
2243	 0.315321853985924
2244	 0.315525812241277
2245	 0.31568875577548
2246	 0.315926963484159
2247	 0.316008888878054
2248	 0.315956067682091
2249	 0.316010174054305
2250	 0.316026548012455
2251	 0.316150876072916
2252	 0.316439200186727
2253	 0.316676917681581
2254	 0.316732514851926
2255	 0.316691186833443
2256	 0.31650538647205
2257	 0.316357981097819
2258	 0.316056048800291
2259	 0.315995359504174
2260	 0.316094709059239
2261	 0.316083254957292
2262	 0.316220471531319
2263	 0.316071823004252
2264	 0.315670660712066
2265	 0.315422432535756
2266	 0.315145111687042
2267	 0.314832288964735
2268	 0.314508867090519
2269	 0.314239469899879
2270	 0.313905406336899
2271	 0.31357916790518
2272	 0.313462128532641
2273	 0.313132044235463
2274	 0.312600668217222
2275	 0.312188463676498
2276	 0.311748359648859
2277	 0.311291366734122
2278	 0.310942900036189
2279	 0.310402838149196
2280	 0.309663785979017
2281	 0.309056223467238
2282	 0.308369973317981
2283	 0.307777667531663
2284	 0.307432227899879
2285	 0.306935429389012
2286	 0.30629787940224
2287	 0.305724010687964
2288	 0.305156522678626
2289	 0.304469152205487
2290	 0.303959829391915
2291	 0.303522915305279
2292	 0.302952355853949
2293	 0.302659930458826
2294	 0.302269351434267
2295	 0.301697706654531
2296	 0.301166169770176
2297	 0.30044558577472
2298	 0.299980183400144
2299	 0.299631143787708
2300	 0.29911108151244
2301	 0.298415840561545
2302	 0.297621475985956
2303	 0.296474949143823
2304	 0.29568936618996
2305	 0.295020723173374
2306	 0.294375942568004
2307	 0.293865236885065
2308	 0.293217495319514
2309	 0.292492681821976
2310	 0.291804353106736
2311	 0.291067135123399
2312	 0.290508310528464
2313	 0.289962593371913
2314	 0.289620944934577
2315	 0.289522436326234
2316	 0.289424176322746
2317	 0.289496373431215
2318	 0.289440916632741
2319	 0.289337345694134
2320	 0.28923126095706
2321	 0.289139581082347
2322	 0.288978644383093
2323	 0.288740995872254
2324	 0.288617902980227
2325	 0.288523495274795
2326	 0.288338280766155
2327	 0.288199665765414
2328	 0.288085812592124
2329	 0.287751976633576
2330	 0.287665301479392
2331	 0.287987475745079
2332	 0.287959711400126
2333	 0.28782248218952
2334	 0.28769793223555
2335	 0.287379242605537
2336	 0.286998678789198
2337	 0.286685560245235
2338	 0.286270981050754
2339	 0.28560917920947
2340	 0.285148465273674
2341	 0.284809097582678
2342	 0.284285138846228
2343	 0.284060435539999
2344	 0.283662519560993
2345	 0.283010946091133
2346	 0.282547549971349
2347	 0.281798888305803
2348	 0.280838028436379
2349	 0.280032830474691
2350	 0.279183440973267
2351	 0.278478702765362
2352	 0.278070703958798
2353	 0.277846665894956
2354	 0.277727473126945
2355	 0.277331971929053
2356	 0.277013138966755
2357	 0.276660610512163
2358	 0.276037762218424
2359	 0.275820291434136
2360	 0.275558707904451
2361	 0.275152803947778
2362	 0.274949970267223
2363	 0.274512106782008
2364	 0.273932938788515
2365	 0.273309173060065
2366	 0.272603807993406
2367	 0.272158696265221
2368	 0.271901295219704
2369	 0.271496047737445
2370	 0.271051859164465
2371	 0.270396574751184
2372	 0.269564485513406
2373	 0.268864630143969
2374	 0.268342574401441
2375	 0.267848262807392
2376	 0.267013072527769
2377	 0.266108916875226
2378	 0.265034564944889
2379	 0.26381903554122
2380	 0.262897724116105
2381	 0.262294081723304
2382	 0.261930933590065
2383	 0.261662404342724
2384	 0.26162515684292
2385	 0.261648465880408
2386	 0.261441064834292
2387	 0.261042215109458
2388	 0.260546467252856
2389	 0.260009193312669
2390	 0.259597039926178
2391	 0.259199834583321
2392	 0.258885048441394
2393	 0.258648518928563
2394	 0.258221655804133
2395	 0.258004118919758
2396	 0.257930386389001
2397	 0.257767764617425
2398	 0.257778140867514
2399	 0.257776243559689
2400	 0.257538145586516
2401	 0.257217075547848
2402	 0.256758846663175
2403	 0.256504295569854
2404	 0.256232859019157
2405	 0.255476361557002
2406	 0.254683562790523
2407	 0.253715349318596
2408	 0.252846789406724
2409	 0.252571449256367
2410	 0.252576742841747
2411	 0.252558510820815
2412	 0.25236675001698
2413	 0.252014794124761
2414	 0.251380665209383
2415	 0.250755185218494
2416	 0.250172753253752
2417	 0.249199756696551
2418	 0.248325268256569
2419	 0.247486312717738
2420	 0.246765125380339
2421	 0.246119624419879
2422	 0.245067975793954
2423	 0.244226728130187
2424	 0.243281792382217
2425	 0.242395939023523
2426	 0.241666296700075
2427	 0.240897389679201
2428	 0.240052628716044
2429	 0.23932771240136
2430	 0.238611825181738
2431	 0.237694309512956
2432	 0.237093094810027
2433	 0.236912015330189
2434	 0.236483060034271
2435	 0.235948133853912
2436	 0.235171273324127
2437	 0.234160448492609
2438	 0.233178163962267
2439	 0.232668776137178
2440	 0.232242690430769
2441	 0.231285061051591
2442	 0.230408303354307
2443	 0.229529814485099
2444	 0.228560518113162
2445	 0.228435794124834
2446	 0.228317379883721
2447	 0.227603119027527
2448	 0.226868646794608
2449	 0.226014106363955
2450	 0.225897433808384
2451	 0.226250970488312
2452	 0.226009691144649
2453	 0.225576520830484
2454	 0.224635586656442
2455	 0.22331884107034
2456	 0.222178103694237
2457	 0.221303349868183
2458	 0.220884183647659
2459	 0.220603941470555
2460	 0.220694045639955
2461	 0.220863931651867
2462	 0.220109300026111
2463	 0.219127965476292
2464	 0.218519117828017
2465	 0.217465952044264
2466	 0.216650055104171
2467	 0.215699312730289
2468	 0.214239379740964
2469	 0.213454603798992
2470	 0.212172022566269
2471	 0.211600321250137
2472	 0.211950421209083
2473	 0.211870012497467
2474	 0.212539047489747
2475	 0.212345226435536
2476	 0.211333182115312
2477	 0.210441890640682
2478	 0.209348786964844
2479	 0.208671535218495
2480	 0.208202437836345
2481	 0.207228408293083
2482	 0.206935363383808
2483	 0.206887967416214
2484	 0.206274919431706
2485	 0.205923930496492
2486	 0.204767272167492
2487	 0.203829562263173
2488	 0.203539872762067
2489	 0.203119063591313
2490	 0.202946867092019
2491	 0.202853243866139
2492	 0.202580168465594
2493	 0.201672042297742
2494	 0.20095418231352
2495	 0.200410036175521
2496	 0.199858488658563
2497	 0.200655445931959
2498	 0.200422492612969
2499	 0.1994224656273
2500	 0.198490882197287
