Wavelength	signature0001.asd
350	 0.102489535068687
351	 0.107115256912295
352	 0.105311877359534
353	 0.103448055712678
354	 0.109987177691746
355	 0.102612938103472
356	 0.101787608872066
357	 0.106417938836037
358	 0.100376440631587
359	 0.103825938779889
360	 0.106624099438214
361	 0.103828923640913
362	 0.101793984895136
363	 9.91875988799889E-02
364	 0.099258696910104
365	 0.102313758036121
366	 9.96521409084028E-02
367	 0.10053949855007
368	 0.100091123746401
369	 9.35405622279066E-02
370	 9.81451382808032E-02
371	 0.100464237513685
372	 0.100734086447248
373	 0.106070643623096
374	 0.100067248832747
375	 9.63224344268748E-02
376	 9.92787560355678E-02
377	 9.97408336290724E-02
378	 9.72180768705362E-02
379	 9.79519635801383E-02
380	 0.103147389987724
381	 0.100812382939587
382	 9.82202925785838E-02
383	 9.73570143768457E-02
384	 9.80435244458089E-02
385	 9.81095286167828E-02
386	 0.10035763701518
387	 0.101550833592266
388	 9.67772653181933E-02
389	 9.59792446819838E-02
390	 9.71596197203626E-02
391	 9.86024271074099E-02
392	 0.100219504892126
393	 9.83220216129724E-02
394	 9.70717839141266E-02
395	 9.87053044463465E-02
396	 9.82757918931047E-02
397	 9.92328977322342E-02
398	 0.100129358385819
399	 9.90421684560785E-02
400	 9.82327671579936E-02
401	 9.73987529369134E-02
402	 9.79036923138993E-02
403	 0.101189340637905
404	 0.100247997821647
405	 9.88355117720251E-02
406	 9.88851441522632E-02
407	 9.85643660116118E-02
408	 9.82651969943195E-02
409	 9.80429156062841E-02
410	 9.81591500629883E-02
411	 9.97411732137251E-02
412	 9.99226185484636E-02
413	 9.97299205922483E-02
414	 0.100855449840964
415	 9.97538932286971E-02
416	 9.90038204824509E-02
417	 0.099245299848228
418	 9.92804948674541E-02
419	 9.98836108472973E-02
420	 9.97010130746645E-02
421	 9.87953157925055E-02
422	 0.100224713159181
423	 0.100406586363992
424	 9.98712951648146E-02
425	 0.100056074571317
426	 0.101329856003021
427	 0.101115643504649
428	 9.99014989935398E-02
429	 0.099918453419553
430	 0.100791800179092
431	 0.101704210327413
432	 0.101788938128502
433	 0.1002050908114
434	 0.100978238020783
435	 0.101949650532702
436	 0.101145171947433
437	 0.101478627934493
438	 0.10216240842645
439	 0.102585245663439
440	 0.102393281917082
441	 0.102352215280564
442	 0.103082802017886
443	 0.103906025962195
444	 0.102935049757564
445	 0.10308585731407
446	 0.103256343415549
447	 0.102743764938942
448	 0.103923587178745
449	 0.104596765313804
450	 0.104635580250042
451	 0.104718638126913
452	 0.105050209654947
453	 0.1051896938603
454	 0.105365559793078
455	 0.106325533317754
456	 0.106062472220382
457	 0.10583828606728
458	 0.10641348107381
459	 0.106251944332422
460	 0.106148628479318
461	 0.106551526665062
462	 0.107501751238146
463	 0.107786284330756
464	 0.107448430416897
465	 0.107192811437293
466	 0.1080377116288
467	 0.108338154007393
468	 0.108239407006009
469	 0.108044570958474
470	 0.107715762207206
471	 0.108202468394731
472	 0.108790269069459
473	 0.108624586894647
474	 0.108877327816504
475	 0.109137631646233
476	 0.10915525451361
477	 0.108921807771577
478	 0.109259297841669
479	 0.109745005439413
480	 0.110041511674413
481	 0.110331239813317
482	 0.110344257796448
483	 0.110308893351518
484	 0.110487692541712
485	 0.110583065914799
486	 0.110680031958812
487	 0.110789718437319
488	 0.110866534877314
489	 0.110943996563333
490	 0.111240259194686
491	 0.11169556141035
492	 0.111697294386661
493	 0.111998204141925
494	 0.112216876022786
495	 0.111990660037969
496	 0.112671484475464
497	 0.112924647243623
498	 0.11278926533662
499	 0.113325938007978
500	 0.113541263119346
501	 0.113630022848808
502	 0.113860474025904
503	 0.11433198599977
504	 0.114609255633295
505	 0.114735542270302
506	 0.114878693621972
507	 0.114926851692221
508	 0.115129945948904
509	 0.115446068597514
510	 0.115609383594321
511	 0.115920071388476
512	 0.116149664483536
513	 0.116246548019063
514	 0.116715492225568
515	 0.117058151093743
516	 0.117166017536041
517	 0.117165004821998
518	 0.117611087076231
519	 0.117856700284032
520	 0.117874012365888
521	 0.118234994831263
522	 0.118582896263244
523	 0.118827694519777
524	 0.118971091531731
525	 0.119073781612673
526	 0.119455339207127
527	 0.119923859245907
528	 0.120141101821459
529	 0.120270405472199
530	 0.12062206212832
531	 0.121131832877057
532	 0.121352291322603
533	 0.121781269681815
534	 0.122207667276977
535	 0.12248209539651
536	 0.123030436522565
537	 0.1235048729662
538	 0.123904564264214
539	 0.124381448042027
540	 0.124896168820088
541	 0.125346555055231
542	 0.12581361270948
543	 0.126605967820946
544	 0.127080201582233
545	 0.127525623189213
546	 0.128267871610892
547	 0.12899418308108
548	 0.129761350811053
549	 0.130579082518765
550	 0.131419674145787
551	 0.13218832285298
552	 0.132898289106764
553	 0.133632215540304
554	 0.134558908920818
555	 0.135522849213728
556	 0.136484591794328
557	 0.137453044732716
558	 0.138459336640063
559	 0.139610239034736
560	 0.140829361478779
561	 0.141921095886491
562	 0.143068738692981
563	 0.144175910992468
564	 0.145250893326216
565	 0.146601219707077
566	 0.147908955465554
567	 0.149123533305612
568	 0.150307796811647
569	 0.151564057395876
570	 0.152843011417747
571	 0.15411651861731
572	 0.155394775186818
573	 0.156858378107352
574	 0.158327425881328
575	 0.159664998730373
576	 0.160983225529634
577	 0.162430514993389
578	 0.163962980580102
579	 0.165460206040203
580	 0.167018207800614
581	 0.168458306073376
582	 0.16979192436202
583	 0.171262310121444
584	 0.172619145444761
585	 0.173905922423328
586	 0.175197972265718
587	 0.176441028688641
588	 0.177832244481171
589	 0.17932905108659
590	 0.180744202194431
591	 0.182003595268667
592	 0.183259347464766
593	 0.184480113466769
594	 0.185310130637494
595	 0.186336892973243
596	 0.187409525526511
597	 0.188263559295368
598	 0.189074328163008
599	 0.1899733880942
600	 0.190901138620298
601	 0.19168181223222
602	 0.192595027485811
603	 0.193522396464147
604	 0.194355862541002
605	 0.195103071294414
606	 0.195729200314168
607	 0.196439959699381
608	 0.197373718984718
609	 0.197979340791192
610	 0.198488573000205
611	 0.199088076060117
612	 0.199858776091839
613	 0.200396511841325
614	 0.200882048402642
615	 0.201457928432936
616	 0.201899629074161
617	 0.202392482131915
618	 0.202951227070165
619	 0.203505164214543
620	 0.203910142652284
621	 0.204286380026825
622	 0.204717115236328
623	 0.205219720034705
624	 0.20578563882174
625	 0.206225325221929
626	 0.206493035071392
627	 0.207068265644325
628	 0.20750038798712
629	 0.207814901412418
630	 0.208256777982605
631	 0.208722779390439
632	 0.209128391492417
633	 0.209483000883578
634	 0.20991720815196
635	 0.210418932521836
636	 0.210868224578689
637	 0.211203091589585
638	 0.211648436914824
639	 0.212139047079736
640	 0.212595368325061
641	 0.212949647103644
642	 0.213329673555268
643	 0.213785513831762
644	 0.214304834330807
645	 0.214801252249967
646	 0.215197909590601
647	 0.215576515781577
648	 0.216010226059725
649	 0.216294054763009
650	 0.216765586083175
651	 0.217335649451027
652	 0.217631440188086
653	 0.218037152651637
654	 0.218506151259099
655	 0.218946817510576
656	 0.219301410537738
657	 0.219630834586919
658	 0.220016080853027
659	 0.22050133046011
660	 0.22093702810085
661	 0.221386002907887
662	 0.221883119520087
663	 0.222423211788532
664	 0.222875968550608
665	 0.223360163437705
666	 0.223913842875142
667	 0.224293747987101
668	 0.224804781527642
669	 0.225368493207678
670	 0.225818133375139
671	 0.226327986067175
672	 0.226865691725481
673	 0.227411715556182
674	 0.227967544083064
675	 0.228486433876408
676	 0.228984869442315
677	 0.22948859354313
678	 0.230021167731971
679	 0.230475274389675
680	 0.230909976625862
681	 0.231431041939603
682	 0.231979515544355
683	 0.232535176172687
684	 0.233092958563851
685	 0.233659929482517
686	 0.234184266846615
687	 0.234758661542988
688	 0.235412101939063
689	 0.235938540346092
690	 0.236535314348584
691	 0.237181042151082
692	 0.237785711682363
693	 0.238453326901168
694	 0.239030104623234
695	 0.239527617267964
696	 0.240137720450639
697	 0.240696523749322
698	 0.24125710118707
699	 0.241863053439051
700	 0.242435090722881
701	 0.242951155000287
702	 0.24347453984809
703	 0.244068215195821
704	 0.244544113806619
705	 0.245039204285358
706	 0.245571516486814
707	 0.2460224382293
708	 0.246598925964435
709	 0.247124130857703
710	 0.247507726594807
711	 0.248052112579755
712	 0.248585905834843
713	 0.24905211243926
714	 0.249452599683753
715	 0.249846010197813
716	 0.250334474404951
717	 0.250880029082426
718	 0.251319697713913
719	 0.251792837573563
720	 0.252248806679281
721	 0.252646180473226
722	 0.253028188133771
723	 0.253486208216431
724	 0.253939862410018
725	 0.254291655372752
726	 0.254736958377869
727	 0.255078230492286
728	 0.255342126857835
729	 0.255743745001234
730	 0.256033625107973
731	 0.256344792831877
732	 0.256737963530759
733	 0.257016269811988
734	 0.257254460951089
735	 0.257558387252935
736	 0.257977019977799
737	 0.258276914204248
738	 0.258494082591287
739	 0.258694368342784
740	 0.258948052034409
741	 0.259191719854196
742	 0.259437851974679
743	 0.259688256048493
744	 0.259913018980122
745	 0.260148562123841
746	 0.260361295228743
747	 0.260528223878124
748	 0.260726090427874
749	 0.260931752992243
750	 0.261125174800188
751	 0.26129487158621
752	 0.261484819376619
753	 0.261629281682705
754	 0.261732516420208
755	 0.261891455546785
756	 0.262021606001451
757	 0.262155471068836
758	 0.262301175094557
759	 0.262327831072072
760	 0.262436036910123
761	 0.262547952255536
762	 0.262530639045829
763	 0.262611124103707
764	 0.26271004078137
765	 0.262756682969326
766	 0.262719279460087
767	 0.262763424087113
768	 0.262780019005415
769	 0.262743356401013
770	 0.262852500085598
771	 0.262945593107102
772	 0.262938769892728
773	 0.262832255730171
774	 0.262819180474685
775	 0.262850200102459
776	 0.262866105400752
777	 0.262819160737458
778	 0.26278444264753
779	 0.262752546705986
780	 0.262715752865876
781	 0.262677315792638
782	 0.262636763847339
783	 0.26260235268699
784	 0.26257551472197
785	 0.262544002493676
786	 0.262441870010415
787	 0.26237022011926
788	 0.262415949753588
789	 0.262342346357821
790	 0.262262750561031
791	 0.262203531210831
792	 0.262124693724876
793	 0.262018398575249
794	 0.261889794023534
795	 0.261761452842834
796	 0.261671420358951
797	 0.261565251538232
798	 0.261456452604002
799	 0.26136677885124
800	 0.261309267575587
801	 0.26117850969319
802	 0.261032409947344
803	 0.260956072136753
804	 0.260871914417073
805	 0.260725534380215
806	 0.260575754499515
807	 0.260524023730609
808	 0.260354021214101
809	 0.260184331628456
810	 0.26009582285455
811	 0.2600727801054
812	 0.260032341502909
813	 0.259892619861442
814	 0.259685456544638
815	 0.259679811757454
816	 0.259545862560354
817	 0.259396225673356
818	 0.259379910920028
819	 0.259206671887599
820	 0.259122278088114
821	 0.259058547078201
822	 0.258833805493364
823	 0.258770286563409
824	 0.25873587815185
825	 0.258667827212727
826	 0.258601565117335
827	 0.258469935492484
828	 0.258354571913265
829	 0.258262839695781
830	 0.258050154906183
831	 0.25805567049089
832	 0.25807456110463
833	 0.257916023264916
834	 0.257803080834881
835	 0.257786439742233
836	 0.257720661514244
837	 0.257486189774241
838	 0.257437414264195
839	 0.257424339397525
840	 0.257348351362329
841	 0.257189362799297
842	 0.257134542812744
843	 0.25717153210398
844	 0.257183887394269
845	 0.257003904767953
846	 0.256861194535421
847	 0.256819662882194
848	 0.256834484360675
849	 0.25674744505887
850	 0.256723118647155
851	 0.256654825133665
852	 0.256516724794346
853	 0.256640212618784
854	 0.256644233328505
855	 0.256608630557913
856	 0.256663032252704
857	 0.256507997561283
858	 0.256443667604451
859	 0.256484431678526
860	 0.256499194681243
861	 0.256455812675028
862	 0.25649445202548
863	 0.256569110334539
864	 0.256523702074704
865	 0.256570310773701
866	 0.256606813545041
867	 0.256611329633641
868	 0.25667108679673
869	 0.256635806041155
870	 0.256588735729252
871	 0.256626426971168
872	 0.256794427577945
873	 0.256794390433714
874	 0.256812151358504
875	 0.256966166136893
876	 0.256986710907825
877	 0.2569766049854
878	 0.256998435571645
879	 0.257077329549218
880	 0.257157501853932
881	 0.257226236334031
882	 0.25729278959638
883	 0.257371031644611
884	 0.257449317221139
885	 0.257520785587188
886	 0.257561633914195
887	 0.257564376292089
888	 0.257640219735759
889	 0.257729239883474
890	 0.257841126479712
891	 0.258008863347189
892	 0.2580278441352
893	 0.258114541683201
894	 0.258264751720338
895	 0.258285584177136
896	 0.258463871651932
897	 0.258710311321727
898	 0.258920976769589
899	 0.259040854254234
900	 0.259059218860239
901	 0.259220430348513
902	 0.259510240380037
903	 0.259539523358013
904	 0.259749827288303
905	 0.259942916877545
906	 0.259976412322894
907	 0.260015012059874
908	 0.26023786761608
909	 0.260494556434038
910	 0.26066802723322
911	 0.260883083902205
912	 0.261094060216539
913	 0.261317851137769
914	 0.261556636173183
915	 0.261744305031444
916	 0.261911255468817
917	 0.262083762697932
918	 0.262298567187446
919	 0.262642942321439
920	 0.262775924253623
921	 0.262886119675098
922	 0.263194840321111
923	 0.263422839296941
924	 0.263625823251778
925	 0.263747306989506
926	 0.263805488877205
927	 0.264186705964769
928	 0.264612430103707
929	 0.264872772709315
930	 0.264944469814423
931	 0.265349002190183
932	 0.265494890922235
933	 0.265519862540514
934	 0.265786826144375
935	 0.266155576498648
936	 0.266326763289863
937	 0.266541329674535
938	 0.267086033258525
939	 0.267333157711383
940	 0.267616090671289
941	 0.267906247551052
942	 0.268071230444106
943	 0.268332479370618
944	 0.268661775958355
945	 0.269092177762551
946	 0.269590565267044
947	 0.269749876569024
948	 0.269994406867397
949	 0.270199923578061
950	 0.270194391325207
951	 0.270782431464591
952	 0.271248040052582
953	 0.271455103884592
954	 0.271586514691832
955	 0.271772170587942
956	 0.272344615952215
957	 0.272826046413202
958	 0.272760921851323
959	 0.273127692537591
960	 0.273574618331919
961	 0.273951338083761
962	 0.274207122634733
963	 0.274292430664721
964	 0.274805724410139
965	 0.275363316073598
966	 0.275497892428526
967	 0.275673096863735
968	 0.276229148890383
969	 0.276661386344918
970	 0.276643906896795
971	 0.277129833798231
972	 0.277434199866732
973	 0.277677334644986
974	 0.278091595954242
975	 0.278607972738195
976	 0.27891605947359
977	 0.279270587132525
978	 0.279751384004059
979	 0.279847933118211
980	 0.280118109940544
981	 0.280442751718094
982	 0.280832169170495
983	 0.281660040329099
984	 0.281850164696148
985	 0.282009942298867
986	 0.282516843821536
987	 0.283034239102817
988	 0.283676086922552
989	 0.283586928456187
990	 0.283331104257794
991	 0.284524352822167
992	 0.284666664435138
993	 0.284691276184037
994	 0.285069237207076
995	 0.285580270853004
996	 0.286148631945998
997	 0.286606273006465
998	 0.287027608772592
999	 0.287513158996058
1000	 0.287591554838556
1001	 0.279273301596436
1002	 0.279719943096149
1003	 0.280058564618135
1004	 0.280330223367847
1005	 0.280649132103981
1006	 0.281005665142645
1007	 0.281376714459739
1008	 0.281831465689025
1009	 0.282223261294778
1010	 0.282564041702823
1011	 0.282866172920932
1012	 0.283149758032464
1013	 0.283388667648236
1014	 0.283781028618224
1015	 0.284063511661495
1016	 0.284295053927951
1017	 0.284638643463546
1018	 0.284860331495614
1019	 0.285194280008026
1020	 0.285604498615064
1021	 0.285980757230089
1022	 0.286381305464115
1023	 0.286601772225054
1024	 0.286863717574734
1025	 0.287101900398598
1026	 0.28748163153365
1027	 0.287813528421199
1028	 0.288152030823929
1029	 0.288541119750562
1030	 0.288813526936899
1031	 0.289036048544486
1032	 0.289266265407617
1033	 0.289505792591273
1034	 0.289859446040359
1035	 0.290141827585598
1036	 0.290433907294978
1037	 0.290850622053676
1038	 0.291174339395574
1039	 0.291415538738703
1040	 0.29169168582717
1041	 0.292030486570925
1042	 0.292248694498256
1043	 0.292527191019244
1044	 0.292940875795319
1045	 0.293343380055064
1046	 0.293655479601321
1047	 0.293970559238555
1048	 0.294295574952893
1049	 0.294537896037852
1050	 0.294818694567969
1051	 0.295211204200055
1052	 0.295329050561362
1053	 0.295516693005298
1054	 0.295562640264458
1055	 0.296102525089474
1056	 0.296692359779414
1057	 0.297204922744212
1058	 0.297868015871926
1059	 0.298219197191032
1060	 0.298337375078428
1061	 0.298593205055754
1062	 0.298962776711755
1063	 0.299298083053303
1064	 0.29959869775058
1065	 0.29993695456451
1066	 0.300320279911895
1067	 0.300735833797059
1068	 0.301110258890623
1069	 0.301461205022447
1070	 0.301854459649723
1071	 0.302279801256187
1072	 0.302611026389737
1073	 0.302906875530973
1074	 0.30336420111099
1075	 0.303713825237206
1076	 0.303975861487004
1077	 0.304391370544448
1078	 0.304706770681485
1079	 0.305024182932199
1080	 0.305473963243849
1081	 0.305862589973844
1082	 0.306149981846483
1083	 0.30649124514448
1084	 0.306839258293584
1085	 0.307167282885378
1086	 0.307539466895554
1087	 0.307867740202566
1088	 0.308178606576643
1089	 0.308374639643391
1090	 0.308636251212835
1091	 0.308915404197548
1092	 0.309249746597506
1093	 0.309631661092162
1094	 0.30994309606136
1095	 0.310245252244496
1096	 0.310538811595925
1097	 0.310889919559679
1098	 0.311243296069336
1099	 0.311669297643297
1100	 0.311993903295623
1101	 0.312276665352384
1102	 0.312550206893979
1103	 0.312772414515184
1104	 0.313028465727917
1105	 0.313276211401376
1106	 0.313562746187952
1107	 0.31383630661322
1108	 0.314071365168103
1109	 0.314321481621708
1110	 0.314566225671631
1111	 0.314810493337936
1112	 0.315066566368604
1113	 0.315297961969873
1114	 0.315485488553872
1115	 0.31576206081497
1116	 0.316104197247907
1117	 0.31636461590357
1118	 0.316652417139999
1119	 0.316926230463054
1120	 0.317167121837505
1121	 0.317307532095633
1122	 0.317557800216531
1123	 0.317802985913879
1124	 0.317999761056764
1125	 0.318310530318711
1126	 0.318641924463041
1127	 0.318965339717244
1128	 0.319211742533676
1129	 0.319435953361455
1130	 0.31968292928808
1131	 0.319887748914956
1132	 0.320128723921842
1133	 0.320439452313351
1134	 0.320676563374779
1135	 0.320883754472437
1136	 0.321094035312382
1137	 0.321259433021996
1138	 0.321459330492989
1139	 0.321669274132376
1140	 0.321896506814109
1141	 0.322115199849499
1142	 0.322304391706354
1143	 0.322505659831228
1144	 0.322687574955681
1145	 0.322857027806875
1146	 0.323010085421428
1147	 0.323193472542711
1148	 0.323389774664526
1149	 0.323553938411685
1150	 0.323708095058731
1151	 0.323891380158829
1152	 0.324045674414303
1153	 0.324221611235174
1154	 0.32444412154681
1155	 0.324667025281457
1156	 0.324878510709664
1157	 0.325099587766261
1158	 0.325369972456379
1159	 0.325653467047211
1160	 0.325937378384663
1161	 0.326213232451294
1162	 0.326504789208481
1163	 0.326798913398818
1164	 0.32709850963387
1165	 0.327405091503995
1166	 0.327736054513306
1167	 0.328100347105018
1168	 0.328421507686413
1169	 0.328736947543499
1170	 0.329052488299329
1171	 0.329329691309045
1172	 0.329629525605436
1173	 0.329966711455059
1174	 0.330285631026779
1175	 0.330593011468736
1176	 0.330899687362154
1177	 0.33122212784671
1178	 0.331506392450973
1179	 0.331794788177523
1180	 0.332116621302073
1181	 0.332430210194642
1182	 0.332750029976671
1183	 0.333060413455852
1184	 0.333378490598479
1185	 0.333683840678973
1186	 0.3339791244141
1187	 0.334270461990293
1188	 0.334569366910502
1189	 0.334845137909216
1190	 0.33510249184772
1191	 0.335355942852716
1192	 0.335567148501554
1193	 0.335814394151961
1194	 0.336047093607503
1195	 0.336346295845722
1196	 0.33666710093779
1197	 0.336990705660453
1198	 0.337298444124998
1199	 0.337624371702129
1200	 0.337901632758667
1201	 0.338149384237405
1202	 0.338399357831172
1203	 0.33861833985343
1204	 0.338857102785134
1205	 0.339083032482338
1206	 0.339344140557402
1207	 0.339647312559101
1208	 0.339907504919165
1209	 0.340181445520231
1210	 0.340431508792971
1211	 0.340621237630443
1212	 0.340845989706335
1213	 0.341098088772662
1214	 0.341339507518033
1215	 0.341517406517631
1216	 0.341705204939922
1217	 0.341917114698173
1218	 0.342106212096738
1219	 0.342314486061983
1220	 0.342569531693105
1221	 0.342797862270306
1222	 0.342998783333158
1223	 0.343215117000085
1224	 0.343456382355214
1225	 0.343676277449306
1226	 0.343888357470083
1227	 0.344087233189554
1228	 0.344272206902528
1229	 0.344459307207264
1230	 0.344620972703682
1231	 0.344806141800723
1232	 0.344996474610635
1233	 0.345204584680088
1234	 0.345441250320199
1235	 0.345674531937828
1236	 0.345882765714358
1237	 0.346084163922038
1238	 0.346298163019408
1239	 0.346493030446829
1240	 0.346703689165341
1241	 0.346962580881894
1242	 0.347151982427032
1243	 0.347289059917263
1244	 0.347465256685711
1245	 0.347641300763721
1246	 0.347796207004279
1247	 0.34794321845462
1248	 0.348114797399865
1249	 0.348254703003844
1250	 0.348434872563426
1251	 0.34868839732816
1252	 0.348901363284231
1253	 0.349128008650108
1254	 0.349313249511982
1255	 0.349472940344085
1256	 0.349583283230207
1257	 0.349772019341689
1258	 0.349969500823259
1259	 0.350152795536372
1260	 0.350395073132972
1261	 0.350563055058205
1262	 0.350653297261567
1263	 0.350806021247473
1264	 0.350989366715558
1265	 0.35112933808948
1266	 0.351265488149699
1267	 0.351395351883639
1268	 0.351482445146205
1269	 0.351598238884123
1270	 0.351740690224194
1271	 0.351867174315804
1272	 0.351980272626993
1273	 0.352107450659381
1274	 0.352259741667837
1275	 0.352377641812124
1276	 0.352484880980228
1277	 0.352588921555055
1278	 0.352680005968165
1279	 0.352729314432039
1280	 0.352830169625548
1281	 0.352970085862391
1282	 0.353052614029519
1283	 0.353117459537626
1284	 0.35320130168538
1285	 0.353263271358023
1286	 0.353331163831253
1287	 0.353437696144399
1288	 0.353503119489054
1289	 0.353500958209513
1290	 0.353569411458944
1291	 0.353672809604975
1292	 0.353760464561902
1293	 0.353880416288777
1294	 0.35398412618485
1295	 0.354055244088295
1296	 0.354152235294367
1297	 0.354256661649183
1298	 0.354379774696525
1299	 0.354543758192587
1300	 0.354673685972212
1301	 0.354804830949533
1302	 0.354942810201674
1303	 0.355075820980198
1304	 0.355196289000535
1305	 0.355314923341538
1306	 0.35545257753275
1307	 0.355547523542382
1308	 0.355604493778143
1309	 0.355672310515629
1310	 0.355720832500062
1311	 0.3557856775025
1312	 0.35586219466297
1313	 0.355928435442805
1314	 0.356004240201531
1315	 0.356051954489663
1316	 0.356084079650078
1317	 0.356105816230673
1318	 0.35609820665604
1319	 0.356105879825827
1320	 0.356130371535411
1321	 0.356124638994175
1322	 0.356148448150181
1323	 0.356102553852149
1324	 0.355998540890467
1325	 0.355870067510785
1326	 0.355722272376984
1327	 0.355563944464075
1328	 0.355429082401521
1329	 0.355322913109871
1330	 0.355167835419768
1331	 0.355007063481406
1332	 0.354822956466365
1333	 0.354599909822568
1334	 0.354397384039656
1335	 0.354199244924763
1336	 0.353985422368699
1337	 0.353748861490347
1338	 0.353540860845507
1339	 0.353342856787592
1340	 0.353134811569784
1341	 0.352969301210787
1342	 0.352746101460017
1343	 0.352494930667796
1344	 0.352217721386905
1345	 0.351880054344244
1346	 0.351572456351793
1347	 0.35125503262762
1348	 0.350945411971143
1349	 0.350641923166961
1350	 0.350364632720371
1351	 0.350074366244816
1352	 0.34973316263198
1353	 0.349395581707798
1354	 0.349062828438264
1355	 0.3487236982054
1356	 0.348378677114186
1357	 0.348033888539602
1358	 0.347674667143237
1359	 0.347346711898976
1360	 0.347032403219487
1361	 0.346718655837085
1362	 0.346458901762634
1363	 0.346112787442621
1364	 0.345724197957219
1365	 0.345340108473071
1366	 0.344903296345618
1367	 0.344502522928637
1368	 0.344162431075721
1369	 0.343737339570495
1370	 0.343295538826175
1371	 0.342814515759221
1372	 0.342316310143615
1373	 0.341723134223542
1374	 0.341064659317758
1375	 0.340376362622783
1376	 0.339615903463491
1377	 0.338810851504418
1378	 0.337973814800106
1379	 0.337101716909496
1380	 0.336135609903984
1381	 0.335117492973908
1382	 0.334103040518864
1383	 0.333044623570554
1384	 0.331984688291716
1385	 0.330889492654282
1386	 0.329850783320052
1387	 0.328785672870936
1388	 0.327834089022431
1389	 0.326946858190367
1390	 0.326093701438384
1391	 0.325306878545592
1392	 0.324523683554677
1393	 0.323789366083484
1394	 0.32301908039254
1395	 0.322293726980245
1396	 0.321476750340878
1397	 0.320633243268848
1398	 0.319717689122455
1399	 0.318740747404865
1400	 0.317717272113433
1401	 0.316645348865152
1402	 0.315508905375055
1403	 0.314302045072953
1404	 0.313065179650553
1405	 0.311719603966991
1406	 0.310430320900915
1407	 0.309118853493293
1408	 0.307836125033547
1409	 0.306592671017347
1410	 0.305426863249193
1411	 0.304393085509786
1412	 0.30350475210461
1413	 0.30282602115825
1414	 0.30235448903894
1415	 0.302049162625648
1416	 0.301875277472092
1417	 0.301829719551572
1418	 0.301967018336813
1419	 0.302101127583404
1420	 0.302385101732158
1421	 0.302583771616951
1422	 0.302805680512524
1423	 0.302994191774095
1424	 0.30315750821852
1425	 0.303323472097857
1426	 0.303471134090773
1427	 0.303635918512166
1428	 0.303791762406037
1429	 0.303981847847627
1430	 0.304185070328417
1431	 0.304416552609205
1432	 0.304682287645515
1433	 0.304941273860346
1434	 0.305241655282923
1435	 0.305500692000991
1436	 0.305738388672491
1437	 0.305985904666189
1438	 0.306202676879931
1439	 0.306439333664899
1440	 0.306712199495859
1441	 0.306955302592651
1442	 0.307186377961623
1443	 0.307418968081003
1444	 0.307646418486374
1445	 0.307844874081386
1446	 0.308081212028678
1447	 0.308333468073538
1448	 0.308535107903394
1449	 0.308708756539554
1450	 0.308853289689719
1451	 0.309003211623198
1452	 0.309166478088358
1453	 0.309322655771437
1454	 0.309462861672848
1455	 0.309538803036979
1456	 0.309602664154151
1457	 0.309627621620321
1458	 0.309663706082998
1459	 0.309666915462089
1460	 0.309711800907519
1461	 0.309779840662552
1462	 0.309828221394351
1463	 0.309869089164101
1464	 0.30994933083748
1465	 0.310018727155988
1466	 0.310136599577763
1467	 0.310301272106327
1468	 0.310477065536465
1469	 0.310662430446212
1470	 0.310890957307043
1471	 0.311174217682287
1472	 0.31144634470281
1473	 0.31174660283866
1474	 0.312040171993724
1475	 0.312319218705085
1476	 0.312625370704187
1477	 0.312948181486872
1478	 0.313280006820754
1479	 0.313651666973078
1480	 0.313986100699196
1481	 0.314307372306716
1482	 0.314626105433164
1483	 0.314923953661134
1484	 0.315229406699158
1485	 0.315553158005783
1486	 0.315851714360948
1487	 0.316113786957142
1488	 0.316403074226305
1489	 0.316699154853819
1490	 0.316991458928456
1491	 0.317315542458508
1492	 0.317614085419845
1493	 0.317838347972198
1494	 0.318076760805635
1495	 0.318363300874051
1496	 0.318618165591589
1497	 0.318884573518467
1498	 0.319151575787787
1499	 0.319355024950799
1500	 0.319544339647966
1501	 0.319736932508001
1502	 0.319932530367354
1503	 0.320106008070815
1504	 0.320289269381817
1505	 0.320518763329615
1506	 0.320734442100254
1507	 0.320930173018644
1508	 0.321123118220712
1509	 0.321304730009417
1510	 0.321451018702876
1511	 0.321633565301664
1512	 0.321834719824899
1513	 0.322029014595249
1514	 0.322239349359666
1515	 0.32242015363697
1516	 0.322586602551219
1517	 0.322753304483867
1518	 0.322907090077018
1519	 0.323057451535616
1520	 0.32320792247986
1521	 0.323352089063394
1522	 0.323484115016654
1523	 0.323619155182746
1524	 0.32374647673288
1525	 0.323888361191251
1526	 0.324043695815284
1527	 0.32417473843574
1528	 0.324308569144226
1529	 0.324429824466191
1530	 0.324526887180896
1531	 0.324633366143467
1532	 0.324739684821549
1533	 0.324847924605242
1534	 0.324964501514849
1535	 0.32505471034013
1536	 0.325138790084398
1537	 0.325216110057115
1538	 0.325261171002006
1539	 0.325327567154721
1540	 0.325388970839054
1541	 0.325473114835528
1542	 0.325596526435994
1543	 0.32567726363376
1544	 0.32576091887603
1545	 0.325829058759957
1546	 0.325843241782652
1547	 0.325893801989318
1548	 0.325959710307386
1549	 0.32602396186721
1550	 0.326101786980393
1551	 0.326177518572545
1552	 0.32626095893298
1553	 0.32633195043831
1554	 0.326402129292911
1555	 0.326463271698934
1556	 0.326508710269641
1557	 0.326553437250649
1558	 0.326579244081939
1559	 0.326626522080886
1560	 0.32670889066915
1561	 0.326749981056921
1562	 0.326777100594026
1563	 0.32680946806586
1564	 0.326796568571642
1565	 0.326811096356053
1566	 0.32687067329328
1567	 0.326900246639037
1568	 0.326894408081172
1569	 0.326928681618241
1570	 0.326987053131482
1571	 0.327027184714119
1572	 0.327101125922254
1573	 0.327144265672651
1574	 0.327144307875024
1575	 0.327148784807306
1576	 0.327164375076521
1577	 0.327172193790097
1578	 0.327195585905625
1579	 0.327203563228986
1580	 0.327239182989705
1581	 0.327309881008489
1582	 0.327345006889168
1583	 0.32740359209514
1584	 0.327427263213023
1585	 0.327427966838596
1586	 0.327481882069105
1587	 0.327527638223105
1588	 0.327584520684395
1589	 0.327608793646875
1590	 0.327604631577374
1591	 0.327624412278394
1592	 0.327651318945985
1593	 0.327686645840201
1594	 0.327706818276498
1595	 0.327696966549436
1596	 0.327701598129565
1597	 0.327719105857681
1598	 0.327725531669944
1599	 0.327743121456525
1600	 0.327732067515633
1601	 0.327718012106582
1602	 0.327749825730295
1603	 0.327774127888067
1604	 0.327767414283383
1605	 0.327758870327718
1606	 0.327754305732334
1607	 0.327749729751852
1608	 0.32778185945558
1609	 0.32783325262236
1610	 0.327841512514738
1611	 0.32784934754739
1612	 0.327880517544587
1613	 0.327856024631122
1614	 0.327796961279562
1615	 0.327776369230087
1616	 0.327761971113199
1617	 0.327764278677238
1618	 0.327794253776143
1619	 0.3278885419667
1620	 0.327932827999698
1621	 0.32796836244095
1622	 0.327988591057577
1623	 0.328001204956131
1624	 0.328008517064387
1625	 0.327996624358487
1626	 0.327993833636168
1627	 0.327997543417694
1628	 0.327980511468127
1629	 0.327952691663983
1630	 0.327952713955835
1631	 0.327949331939907
1632	 0.32795275448929
1633	 0.327971297891594
1634	 0.327936338493119
1635	 0.327896140511876
1636	 0.327851178732504
1637	 0.327803630090356
1638	 0.327782685674871
1639	 0.327767829349162
1640	 0.327775869921281
1641	 0.32778348329427
1642	 0.327818454056069
1643	 0.327827719438827
1644	 0.327814641405211
1645	 0.327809785524359
1646	 0.327792092742961
1647	 0.327777444963658
1648	 0.327792398699582
1649	 0.327773439350557
1650	 0.327696329368572
1651	 0.327670315727737
1652	 0.327666631316907
1653	 0.327649287920445
1654	 0.327686273065147
1655	 0.327678113699224
1656	 0.327615525663545
1657	 0.327563166403253
1658	 0.327487284082102
1659	 0.327430306269255
1660	 0.327377058839125
1661	 0.327335499274884
1662	 0.327304975804982
1663	 0.32728840199187
1664	 0.327321404152552
1665	 0.327299086083213
1666	 0.327247466840956
1667	 0.327204884076795
1668	 0.327095459376415
1669	 0.327051325086538
1670	 0.327087688848255
1671	 0.327072479355244
1672	 0.327076796421711
1673	 0.327042623854404
1674	 0.326924403943867
1675	 0.326866188007187
1676	 0.326820096065418
1677	 0.326787816394815
1678	 0.326815848414601
1679	 0.326798029585629
1680	 0.326769456131256
1681	 0.326720060445553
1682	 0.326638813370308
1683	 0.326562412362418
1684	 0.326473464410484
1685	 0.326382845738551
1686	 0.326260939888631
1687	 0.326187759705826
1688	 0.326148448337225
1689	 0.326094962142586
1690	 0.326080540219016
1691	 0.326029436821967
1692	 0.325930195459285
1693	 0.32586662200438
1694	 0.32582795755112
1695	 0.325755459561123
1696	 0.325680008873537
1697	 0.325598288567051
1698	 0.325477738999307
1699	 0.325391677032491
1700	 0.325332663069926
1701	 0.325253911235781
1702	 0.325177831024215
1703	 0.32509463077278
1704	 0.325012365686131
1705	 0.324905955873587
1706	 0.324769898171092
1707	 0.324671450306446
1708	 0.324564084438256
1709	 0.324479083055669
1710	 0.32445484839312
1711	 0.324349676515391
1712	 0.324206686449414
1713	 0.324086277469651
1714	 0.323937605578247
1715	 0.323798948478314
1716	 0.323676650025663
1717	 0.323541619516789
1718	 0.323392377889746
1719	 0.323271367401374
1720	 0.323134201900088
1721	 0.323006182162398
1722	 0.322838989710446
1723	 0.32269032374038
1724	 0.322564335115824
1725	 0.322429521694665
1726	 0.322306829399736
1727	 0.322155545372446
1728	 0.321997060350832
1729	 0.321833202593851
1730	 0.321670939532907
1731	 0.321538147306738
1732	 0.321413565205346
1733	 0.321295028866901
1734	 0.321152801238806
1735	 0.320977725452374
1736	 0.320811390640319
1737	 0.320614539265148
1738	 0.320447344834038
1739	 0.320316147191617
1740	 0.320155695231801
1741	 0.319987015055841
1742	 0.319827113623743
1743	 0.319670008925339
1744	 0.319485683165248
1745	 0.319295077268425
1746	 0.319115322644773
1747	 0.318901921787668
1748	 0.318720214885967
1749	 0.318575422364664
1750	 0.318404594719032
1751	 0.318237002432219
1752	 0.318044967723404
1753	 0.317823487035431
1754	 0.317635950241319
1755	 0.317432941095296
1756	 0.317276007630954
1757	 0.317169958281345
1758	 0.317030968285062
1759	 0.316909899243877
1760	 0.31678384230544
1761	 0.31660560640151
1762	 0.316389362974459
1763	 0.316213208307923
1764	 0.316089767378568
1765	 0.315963061807336
1766	 0.315834576077821
1767	 0.315679798923336
1768	 0.315481053297079
1769	 0.315279409633994
1770	 0.315131919043338
1771	 0.314985872103497
1772	 0.314839237116495
1773	 0.314702869708711
1774	 0.314577326398273
1775	 0.314459044629756
1776	 0.314278298274937
1777	 0.314147376782606
1778	 0.314083440990641
1779	 0.313965875834933
1780	 0.313805300154473
1781	 0.313690655524817
1782	 0.313538237675071
1783	 0.313409700691048
1784	 0.313352349525036
1785	 0.313272271107737
1786	 0.313134550086174
1787	 0.313060560762733
1788	 0.313070243379611
1789	 0.313040325623111
1790	 0.313017721387704
1791	 0.312955763934275
1792	 0.312856265028279
1793	 0.312734712516334
1794	 0.312594173459409
1795	 0.312530749613029
1796	 0.312523040889231
1797	 0.312484795403222
1798	 0.312509949901712
1799	 0.312498247913942
1800	 0.312409130989724
1801	 0.312341004906825
1802	 0.312263229833863
1803	 0.312146140267046
1804	 0.312015925996874
1805	 0.311889679169713
1806	 0.311773416650591
1807	 0.311714364546349
1808	 0.311710585180362
1809	 0.311678576555807
1810	 0.311631991384581
1811	 0.311575379584308
1812	 0.311486320797448
1813	 0.311441884160863
1814	 0.311402999571625
1815	 0.311374909069178
1816	 0.311294345803122
1817	 0.311192462033927
1818	 0.311112097634383
1819	 0.311033250322309
1820	 0.310996141656916
1821	 0.310918920025092
1822	 0.310866570767119
1823	 0.310809731572982
1824	 0.310724736491255
1825	 0.31070119791505
1826	 0.310599722653782
1827	 0.310367329595641
1828	 0.310158296383676
1829	 0.310007313025268
1830	 0.309845040975313
1831	 0.321678675451608
1832	 0.321755206068036
1833	 0.321763535838906
1834	 0.3217761929008
1835	 0.321912434905151
1836	 0.321891667546196
1837	 0.321709922772485
1838	 0.321611135601244
1839	 0.321511351878109
1840	 0.321318962374414
1841	 0.321241411274346
1842	 0.321244674308586
1843	 0.321159822734599
1844	 0.321056547071004
1845	 0.320955367273989
1846	 0.320814209568627
1847	 0.320681581653702
1848	 0.320561125241431
1849	 0.320438418913784
1850	 0.320260218301826
1851	 0.320094080870327
1852	 0.319906437433591
1853	 0.319603288418965
1854	 0.31929369477442
1855	 0.318977594755559
1856	 0.318589033780777
1857	 0.318116636593127
1858	 0.317647659187513
1859	 0.317188763607112
1860	 0.316607802298929
1861	 0.315937662437885
1862	 0.315375505208143
1863	 0.314650624361009
1864	 0.313834537025374
1865	 0.313027653764978
1866	 0.312237842109811
1867	 0.311271967435613
1868	 0.310257052567609
1869	 0.30908862804629
1870	 0.307783786945204
1871	 0.306342036826765
1872	 0.304789927316687
1873	 0.303283822902333
1874	 0.301681650614674
1875	 0.299992722366038
1876	 0.298344487078274
1877	 0.296514469807803
1878	 0.294571801166079
1879	 0.292503391227023
1880	 0.290394498680456
1881	 0.288125480729402
1882	 0.285893035524203
1883	 0.283596753921088
1884	 0.28111266214654
1885	 0.27855618577376
1886	 0.275805715336197
1887	 0.272861491848061
1888	 0.269859590253696
1889	 0.266808319383595
1890	 0.26364399486001
1891	 0.260436057637595
1892	 0.257207697839233
1893	 0.253931180319771
1894	 0.250589262548446
1895	 0.247168904563432
1896	 0.243817685842098
1897	 0.240588563478988
1898	 0.237451228962702
1899	 0.234456328421728
1900	 0.23158102356022
1901	 0.228835254863164
1902	 0.226212694657601
1903	 0.223688956431715
1904	 0.221236390357838
1905	 0.21907083517173
1906	 0.217083319142199
1907	 0.215255144340549
1908	 0.213727970017883
1909	 0.212371181820308
1910	 0.211217226945993
1911	 0.210243580927581
1912	 0.209486995072728
1913	 0.208902201997543
1914	 0.208498261099771
1915	 0.208197885086131
1916	 0.208022496107629
1917	 0.207957840798398
1918	 0.207910116504285
1919	 0.207888012739818
1920	 0.20796796047105
1921	 0.208136433509378
1922	 0.208386766480414
1923	 0.208687719875716
1924	 0.209067410423146
1925	 0.209488820321737
1926	 0.209953192431813
1927	 0.210373120114306
1928	 0.210823092753462
1929	 0.21127378282692
1930	 0.211700590339123
1931	 0.212217356076132
1932	 0.212767068126884
1933	 0.213297426283332
1934	 0.213799986864813
1935	 0.214299613729656
1936	 0.214749750397939
1937	 0.215216978369879
1938	 0.215744855507739
1939	 0.216261949682491
1940	 0.216850551276377
1941	 0.217389459289607
1942	 0.217837150621755
1943	 0.218420421181046
1944	 0.218934242710975
1945	 0.219421792782151
1946	 0.219944940400414
1947	 0.220414278080925
1948	 0.22076904422023
1949	 0.221218094624107
1950	 0.221758136944633
1951	 0.222306010262524
1952	 0.222915834328134
1953	 0.223524552463021
1954	 0.224115331814757
1955	 0.224689976457406
1956	 0.22517992260847
1957	 0.225655165045208
1958	 0.226153011005482
1959	 0.226568761905279
1960	 0.227067297630922
1961	 0.227603595806478
1962	 0.228227957016387
1963	 0.228885230243501
1964	 0.229563655033622
1965	 0.230210610477659
1966	 0.230808939134869
1967	 0.231350298079596
1968	 0.231916580222871
1969	 0.232590329272859
1970	 0.233405861247228
1971	 0.234109463192905
1972	 0.234859653494092
1973	 0.235551911024585
1974	 0.236168387456154
1975	 0.236803961041025
1976	 0.237396360933219
1977	 0.238006436109643
1978	 0.23865889389053
1979	 0.239325788158446
1980	 0.240141976535291
1981	 0.240936329839654
1982	 0.241694058370576
1983	 0.242469383591004
1984	 0.243183710786344
1985	 0.243838833636284
1986	 0.244532158438469
1987	 0.245223734454284
1988	 0.245860472902384
1989	 0.246570564947618
1990	 0.247228556324628
1991	 0.247847620099215
1992	 0.248573540154047
1993	 0.249325404675348
1994	 0.250030782548844
1995	 0.250775189673853
1996	 0.251574566771653
1997	 0.252352103674891
1998	 0.25313641092014
1999	 0.253895522639017
2000	 0.254697793217339
2001	 0.255390012221658
2002	 0.255963630556956
2003	 0.256661790322565
2004	 0.257295921342284
2005	 0.25792571423898
2006	 0.258715914598116
2007	 0.259409621026201
2008	 0.260077961395703
2009	 0.260715160859103
2010	 0.261391170571879
2011	 0.262071616003199
2012	 0.262725164850328
2013	 0.263390407519589
2014	 0.264053233773085
2015	 0.264738820138141
2016	 0.265236524723751
2017	 0.265858011712259
2018	 0.266509902008716
2019	 0.267038203745099
2020	 0.267640395939616
2021	 0.268187110369067
2022	 0.268698299101789
2023	 0.269189018680802
2024	 0.269642779020861
2025	 0.270141256995308
2026	 0.270613568099891
2027	 0.271113189775633
2028	 0.271688640794453
2029	 0.27217241647342
2030	 0.27262483252709
2031	 0.273228675736083
2032	 0.273795211435073
2033	 0.274230588284675
2034	 0.27460914223896
2035	 0.274975535611622
2036	 0.27538291362426
2037	 0.275783811519398
2038	 0.276180343364916
2039	 0.276631909627596
2040	 0.277027504662379
2041	 0.277373101269435
2042	 0.277705324924073
2043	 0.278056463834253
2044	 0.278330811086829
2045	 0.278566120230096
2046	 0.27883229746511
2047	 0.279114315879193
2048	 0.279457250620386
2049	 0.279789105176289
2050	 0.280113338331463
2051	 0.280453066339738
2052	 0.280798935967465
2053	 0.281120175258874
2054	 0.281418486287321
2055	 0.281778891117844
2056	 0.282154080199828
2057	 0.282546398849118
2058	 0.283010989987699
2059	 0.283464348695976
2060	 0.283773179515883
2061	 0.284004757752322
2062	 0.28425147340868
2063	 0.284447651414501
2064	 0.284756221216137
2065	 0.285176134299378
2066	 0.285532091324334
2067	 0.285930851126582
2068	 0.286268593857106
2069	 0.286547105524707
2070	 0.286842355063198
2071	 0.287104084996686
2072	 0.287394248061951
2073	 0.287725224235314
2074	 0.288036006504097
2075	 0.288366404519324
2076	 0.288658635493583
2077	 0.288922295443114
2078	 0.289077609163499
2079	 0.289316650798999
2080	 0.289556451419959
2081	 0.28972951643147
2082	 0.28988987468564
2083	 0.290083598982451
2084	 0.290188325652283
2085	 0.290384614091738
2086	 0.290665887690021
2087	 0.290910543278483
2088	 0.29118716238948
2089	 0.291437522572398
2090	 0.291676641138679
2091	 0.291925505922952
2092	 0.292192151440534
2093	 0.292375917024786
2094	 0.292615782101024
2095	 0.292825492663351
2096	 0.29298613061114
2097	 0.293163751838409
2098	 0.29329989509546
2099	 0.293343747702093
2100	 0.293548696717147
2101	 0.293815375675298
2102	 0.294043865747404
2103	 0.294424257452398
2104	 0.294630439315075
2105	 0.294677900846508
2106	 0.294806222393908
2107	 0.294841483174116
2108	 0.29498213421078
2109	 0.295205307798054
2110	 0.295453599831136
2111	 0.295725348746178
2112	 0.296027301043507
2113	 0.296199813552228
2114	 0.296374081520221
2115	 0.29658648571917
2116	 0.29679658840015
2117	 0.296977388895758
2118	 0.297176830971299
2119	 0.29737352195135
2120	 0.297527711009615
2121	 0.297691100286555
2122	 0.297936308463613
2123	 0.298098279726019
2124	 0.298135315350342
2125	 0.298250959291898
2126	 0.298415056064511
2127	 0.298513359851404
2128	 0.298584692852979
2129	 0.298747421100689
2130	 0.298793518373978
2131	 0.298711279975134
2132	 0.298694666721874
2133	 0.298676124448764
2134	 0.298636694599505
2135	 0.298619538470071
2136	 0.298536534061749
2137	 0.298357505930726
2138	 0.298234076662096
2139	 0.298139427745141
2140	 0.297979536604206
2141	 0.297829428068786
2142	 0.297652979944219
2143	 0.297443465085803
2144	 0.297164955699979
2145	 0.296780031227712
2146	 0.296491301398223
2147	 0.296258152368511
2148	 0.295889368400293
2149	 0.295618272871711
2150	 0.295298161367719
2151	 0.294789544835498
2152	 0.294306270779187
2153	 0.293870228650642
2154	 0.29346183978887
2155	 0.293026201382842
2156	 0.292610268624372
2157	 0.29219870893315
2158	 0.29175672980106
2159	 0.291326795166489
2160	 0.290897502467794
2161	 0.290512008045431
2162	 0.290114474722823
2163	 0.289780575792527
2164	 0.289564157953057
2165	 0.289288087869381
2166	 0.289028055244884
2167	 0.288740360937998
2168	 0.288442168551461
2169	 0.288056880552865
2170	 0.287802243920828
2171	 0.287452443380508
2172	 0.287132259205125
2173	 0.286904289617419
2174	 0.286580535277006
2175	 0.28619784704595
2176	 0.285879244661071
2177	 0.285542931771563
2178	 0.285232719692966
2179	 0.284962849939422
2180	 0.284679733572044
2181	 0.284432068568777
2182	 0.284114780319717
2183	 0.283817985087537
2184	 0.283417942558882
2185	 0.28290277300346
2186	 0.282412077034343
2187	 0.281875325406501
2188	 0.281336953299776
2189	 0.280825997627374
2190	 0.280233571816518
2191	 0.279632450033787
2192	 0.278969941884116
2193	 0.278251005558274
2194	 0.277608400452588
2195	 0.277073293780853
2196	 0.276385653667297
2197	 0.275651801086918
2198	 0.274924748182537
2199	 0.274106318297275
2200	 0.273147540462281
2201	 0.272266816936462
2202	 0.271254674408927
2203	 0.270497555370951
2204	 0.269758346960898
2205	 0.269238937260768
2206	 0.268976585031213
2207	 0.268779363553907
2208	 0.268646643266997
2209	 0.268741366782291
2210	 0.268989016596547
2211	 0.269429077011604
2212	 0.270193279132568
2213	 0.270903660726833
2214	 0.271789563062154
2215	 0.272604527701
2216	 0.27342066362905
2217	 0.274233923297949
2218	 0.274988096296603
2219	 0.275715062326059
2220	 0.276424600398758
2221	 0.276956332013528
2222	 0.277330484249328
2223	 0.277845499570746
2224	 0.278194092647338
2225	 0.278424575013533
2226	 0.278597610840009
2227	 0.278690974147273
2228	 0.27870186633856
2229	 0.278601178093628
2230	 0.278535798208383
2231	 0.278443429547407
2232	 0.278346916933124
2233	 0.27819522505221
2234	 0.278064680912275
2235	 0.277952288371126
2236	 0.277778593674238
2237	 0.277545828804851
2238	 0.27741199728398
2239	 0.27725186778873
2240	 0.277144741629743
2241	 0.277202899470456
2242	 0.277154935573494
2243	 0.276994200637027
2244	 0.276947377889925
2245	 0.276978759839492
2246	 0.276933207583691
2247	 0.27686561219724
2248	 0.276847004204942
2249	 0.2765787417901
2250	 0.276129727425687
2251	 0.275838072885305
2252	 0.275564568848773
2253	 0.275456903026288
2254	 0.275490783707529
2255	 0.27537811251732
2256	 0.275260704301421
2257	 0.275188103242792
2258	 0.275095771901623
2259	 0.275048036604574
2260	 0.275099741546424
2261	 0.275047710543996
2262	 0.274936459992915
2263	 0.274800713040985
2264	 0.274589154281425
2265	 0.274484366407483
2266	 0.274451469389419
2267	 0.274280122168667
2268	 0.274088677541859
2269	 0.273938463624084
2270	 0.273785424820476
2271	 0.27354740095664
2272	 0.273330814182241
2273	 0.27300555792426
2274	 0.272446062919671
2275	 0.271989595148115
2276	 0.271542949914576
2277	 0.271168141379264
2278	 0.270819079535863
2279	 0.270504563812547
2280	 0.270409973876902
2281	 0.270082216571789
2282	 0.269646872472452
2283	 0.269162253461136
2284	 0.268579069610304
2285	 0.268069166272647
2286	 0.267652621298974
2287	 0.26739307164063
2288	 0.267093905125144
2289	 0.266678968743527
2290	 0.266297684975827
2291	 0.265879700992203
2292	 0.265760759206638
2293	 0.265557839221529
2294	 0.265260293513557
2295	 0.264993578711317
2296	 0.264332804146889
2297	 0.263794970047041
2298	 0.263350953947957
2299	 0.262928858786776
2300	 0.262838809527562
2301	 0.262500517127542
2302	 0.262188535699492
2303	 0.26194629906124
2304	 0.261669741135973
2305	 0.261363050472177
2306	 0.2609177386454
2307	 0.260395312601055
2308	 0.259799396792284
2309	 0.258858665085124
2310	 0.258465394238383
2311	 0.25838690566668
2312	 0.258210989604593
2313	 0.258304179922504
2314	 0.258133347296545
2315	 0.25769980787718
2316	 0.257505473484735
2317	 0.257439697900252
2318	 0.257295290913558
2319	 0.257207943074316
2320	 0.257100019603025
2321	 0.256861593805184
2322	 0.256801663769067
2323	 0.256906054596249
2324	 0.256893012200444
2325	 0.256945794142962
2326	 0.256850576767283
2327	 0.25661176151852
2328	 0.256445156537622
2329	 0.256235619432736
2330	 0.256084190447508
2331	 0.256029910948618
2332	 0.255832360257459
2333	 0.255518415309906
2334	 0.255259088113723
2335	 0.254934312325572
2336	 0.254642275312928
2337	 0.254469132253818
2338	 0.254286437782543
2339	 0.254115716228254
2340	 0.253862617394616
2341	 0.253680156275074
2342	 0.253193188500126
2343	 0.252734092806083
2344	 0.252296809403622
2345	 0.251965441448971
2346	 0.251760992816604
2347	 0.251418844757548
2348	 0.251253981719452
2349	 0.250859362525547
2350	 0.250371355429472
2351	 0.250029456935475
2352	 0.249514833064516
2353	 0.249470390842097
2354	 0.249415509703802
2355	 0.249107598691476
2356	 0.248873619782194
2357	 0.248251785111868
2358	 0.247679043474852
2359	 0.247422779360395
2360	 0.246945529313343
2361	 0.246436079995489
2362	 0.246145592942669
2363	 0.245543352947335
2364	 0.245129615232032
2365	 0.245024192215377
2366	 0.244509245280836
2367	 0.244141168158789
2368	 0.243761858305544
2369	 0.24333446191365
2370	 0.243117933493434
2371	 0.242860139843909
2372	 0.242552417913605
2373	 0.241926407540039
2374	 0.241159398256612
2375	 0.240327231728406
2376	 0.239603039284494
2377	 0.239003877995538
2378	 0.238339870419996
2379	 0.237766507154646
2380	 0.237251447992205
2381	 0.236684075427702
2382	 0.236163719345921
2383	 0.23552846903018
2384	 0.23476048555982
2385	 0.234394005100786
2386	 0.233987493333548
2387	 0.233508758491424
2388	 0.23310654986057
2389	 0.232447388638347
2390	 0.23189574340106
2391	 0.231614511901093
2392	 0.231422554769438
2393	 0.231011356305347
2394	 0.230789462725036
2395	 0.23086907923353
2396	 0.230392421059522
2397	 0.229921059763725
2398	 0.229634362466763
2399	 0.228757140674717
2400	 0.228018809687127
2401	 0.227674718450187
2402	 0.227147113597325
2403	 0.226770766983964
2404	 0.226517150236102
2405	 0.226073073321705
2406	 0.225518414434828
2407	 0.224615410709679
2408	 0.223950750450582
2409	 0.223745154077971
2410	 0.223051841461436
2411	 0.222501793625105
2412	 0.222385765175447
2413	 0.22177699420213
2414	 0.221188375232603
2415	 0.2206350667461
2416	 0.219350171551885
2417	 0.218133016715429
2418	 0.217766046671066
2419	 0.217433576689524
2420	 0.217216496323457
2421	 0.21738019782241
2422	 0.217109514006193
2423	 0.216379795595434
2424	 0.215872475329983
2425	 0.215257817593859
2426	 0.214606119508477
2427	 0.214273119567469
2428	 0.213883679401449
2429	 0.213074424831663
2430	 0.212328850561602
2431	 0.211583020105622
2432	 0.210824019962714
2433	 0.210226108578315
2434	 0.209632827496462
2435	 0.20908827764887
2436	 0.208310759146421
2437	 0.207468843326799
2438	 0.206618125372119
2439	 0.205640695810501
2440	 0.205626366896699
2441	 0.205506304960619
2442	 0.204961645492701
2443	 0.204735247920497
2444	 0.204638720654653
2445	 0.203722336843066
2446	 0.203094912145652
2447	 0.202703374788336
2448	 0.201694185562353
2449	 0.201373888232717
2450	 0.200856049392743
2451	 0.200409187357294
2452	 0.200544709844778
2453	 0.199953643556701
2454	 0.199530422683768
2455	 0.198960682265104
2456	 0.197335070593764
2457	 0.195940633101628
2458	 0.195191175163914
2459	 0.194522642501932
2460	 0.194552905915966
2461	 0.195030203259697
2462	 0.194438506178455
2463	 0.193473771979624
2464	 0.192592508645075
2465	 0.191295476406501
2466	 0.190895160462494
2467	 0.190907631223191
2468	 0.190994539034796
2469	 0.191128109149522
2470	 0.190553496783225
2471	 0.190217918663372
2472	 0.18937346419676
2473	 0.188807984205042
2474	 0.189018925463599
2475	 0.188137236006468
2476	 0.187348966612515
2477	 0.186686940203103
2478	 0.185006088367345
2479	 0.185157528474978
2480	 0.185987427801126
2481	 0.186877653648584
2482	 0.187247766344102
2483	 0.187403914726793
2484	 0.187454607529307
2485	 0.186529089733854
2486	 0.185679562404446
2487	 0.184448535263061
2488	 0.182193723779206
2489	 0.181373242741965
2490	 0.181355468899965
2491	 0.181046977746731
2492	 0.180620129899462
2493	 0.179687726467479
2494	 0.17870541454786
2495	 0.178934658040505
2496	 0.180292056630759
2497	 0.180444654556612
2498	 0.179918935537311
2499	 0.179433654144145
2500	 0.177931200565145
