Wavelength	signature0005.asd
350	 0.116816142286771
351	 0.115760919969415
352	 0.103517448582411
353	 9.62594340096471E-02
354	 0.108226741589995
355	 0.108370515507557
356	 0.101872627631056
357	 9.77417284279349E-02
358	 0.103550767953977
359	 0.104438771245903
360	 0.103645545321913
361	 0.104083969823909
362	 0.105149763982164
363	 0.106653070106278
364	 0.104423652433743
365	 9.84338547317092E-02
366	 0.100157183347098
367	 0.101295154749358
368	 9.95072273220534E-02
369	 9.63149571561268E-02
370	 0.100620779614704
371	 0.103021102169977
372	 0.100681289408895
373	 0.096574468261719
374	 0.100556617716879
375	 0.104419968306805
376	 0.104315150333903
377	 0.103561832612608
378	 0.102143551242269
379	 0.101684172604251
380	 0.102564692797299
381	 0.102094310756858
382	 0.103152235771556
383	 0.102760888993488
384	 9.91968589540837E-02
385	 0.102697972636594
386	 0.104287190233936
387	 0.102911679672029
388	 0.102455005189948
389	 0.104147169075696
390	 0.105997823468399
391	 0.107128200509772
392	 0.108204955152405
393	 0.106943937293401
394	 0.106662535423164
395	 0.108525200262082
396	 0.107100289511735
397	 0.105206579912463
398	 0.105278508062961
399	 0.107912491335218
400	 0.107162260019596
401	 0.107099111748438
402	 0.108667526485566
403	 0.110375892210799
404	 0.110214762257538
405	 0.108809516468305
406	 0.107537481124159
407	 0.10814562560554
408	 0.108626561267508
409	 0.109558942292503
410	 0.110946949402812
411	 0.109900283847768
412	 0.108736639514583
413	 0.10875010510311
414	 0.110230318980015
415	 0.111045581364461
416	 0.111072254350429
417	 0.110953154423171
418	 0.111690269135532
419	 0.111997115126151
420	 0.111793789488876
421	 0.111599371311741
422	 0.112683897522696
423	 0.112956333626584
424	 0.112828083515518
425	 0.113106709024128
426	 0.11322229782449
427	 0.113253518044534
428	 0.113414015847512
429	 0.113938394808519
430	 0.114615007742904
431	 0.11531708086434
432	 0.115892111299746
433	 0.116143301916177
434	 0.116358967179017
435	 0.116611283691091
436	 0.116892880868226
437	 0.117074551994291
438	 0.117851614792312
439	 0.118567512705064
440	 0.118252292726917
441	 0.118367693703151
442	 0.119042979667997
443	 0.119786140788542
444	 0.119655442412757
445	 0.12040257687823
446	 0.121156929048556
447	 0.12128634465842
448	 0.122069524200977
449	 0.122573786706936
450	 0.122776815759004
451	 0.12294949695931
452	 0.122837453349312
453	 0.122920810194571
454	 0.123337035687664
455	 0.123836346780425
456	 0.123853908992053
457	 0.123883773905665
458	 0.124367578139572
459	 0.125329195088476
460	 0.125499040757752
461	 0.1253606282649
462	 0.125770922039024
463	 0.126059697321945
464	 0.125770501513094
465	 0.125540306732137
466	 0.126679886140208
467	 0.127023005862552
468	 0.12687226384589
469	 0.126871003846828
470	 0.127556673479292
471	 0.128051979379907
472	 0.128092193195442
473	 0.127872441646639
474	 0.128587542342143
475	 0.128892974339629
476	 0.128709082666661
477	 0.12896763889079
478	 0.129497231719212
479	 0.129947201462869
480	 0.130186853965535
481	 0.130552881878829
482	 0.130608221344241
483	 0.130756993935418
484	 0.131381508734094
485	 0.131620639769081
486	 0.131976622093668
487	 0.132408749433862
488	 0.132502305441993
489	 0.132851381062221
490	 0.133374513090243
491	 0.133870316337612
492	 0.134090672823685
493	 0.134569362684303
494	 0.135166462232195
495	 0.135561197348062
496	 0.135613453328409
497	 0.135999492786584
498	 0.136649031567226
499	 0.136946232521019
500	 0.137357556203818
501	 0.137767388739852
502	 0.138180450125463
503	 0.139017032794985
504	 0.139605907419639
505	 0.140030433920087
506	 0.140559368242947
507	 0.141073230736745
508	 0.141453321849862
509	 0.141748031595312
510	 0.142147908684155
511	 0.142865209995812
512	 0.14353126524783
513	 0.143950767118877
514	 0.144463680376834
515	 0.145056153471132
516	 0.145519597713459
517	 0.145743800205782
518	 0.146544022272093
519	 0.147083739708181
520	 0.147340704691066
521	 0.148075090824642
522	 0.148666816351921
523	 0.149191952279356
524	 0.1497387892575
525	 0.150104976474208
526	 0.150566149132582
527	 0.151256843119364
528	 0.152128228295602
529	 0.152458384261509
530	 0.152968438332865
531	 0.153798240321728
532	 0.154379426243571
533	 0.154976314324116
534	 0.155578895395725
535	 0.156169733580487
536	 0.156860655109343
537	 0.157477252554231
538	 0.158028960303234
539	 0.15864080303594
540	 0.159581126640744
541	 0.16029317370102
542	 0.160729287338504
543	 0.161549417717055
544	 0.162348498676802
545	 0.163042647574398
546	 0.163699444241336
547	 0.164630777419839
548	 0.165476412254692
549	 0.166242705177268
550	 0.167131384862701
551	 0.167958201398589
552	 0.168810836109843
553	 0.169728888732201
554	 0.170633371496947
555	 0.171442551586619
556	 0.172290489868091
557	 0.173296708616582
558	 0.174221388849708
559	 0.175268815728093
560	 0.176361728739481
561	 0.177230187489594
562	 0.178097757946844
563	 0.179003337673156
564	 0.179969534765102
565	 0.181062527624574
566	 0.182020034306753
567	 0.182921445252175
568	 0.183926510343848
569	 0.18489659230747
570	 0.185867264436756
571	 0.186847956090143
572	 0.18781622052034
573	 0.188752139880985
574	 0.189687270718872
575	 0.190648606385965
576	 0.191617103353771
577	 0.192576870945667
578	 0.193573023212224
579	 0.194646413162099
580	 0.195654811932776
581	 0.196533745539612
582	 0.197368226174436
583	 0.198393252353415
584	 0.199209141041741
585	 0.200038781637047
586	 0.201040916379781
587	 0.20172750159388
588	 0.202546460666636
589	 0.2034383547529
590	 0.204102879116283
591	 0.204786506593507
592	 0.205526608615634
593	 0.206310096688985
594	 0.207077236566598
595	 0.207891614000827
596	 0.208630054764812
597	 0.209203075023279
598	 0.209855104508653
599	 0.21056823264015
600	 0.211291714572659
601	 0.211956135451872
602	 0.212618425725979
603	 0.213259035749951
604	 0.213851701794481
605	 0.21437241800668
606	 0.214749219291516
607	 0.215256470980377
608	 0.216083328084214
609	 0.216458125394486
610	 0.216750228761093
611	 0.217237774425534
612	 0.218021840006096
613	 0.218469825841348
614	 0.218812176271404
615	 0.219291499751024
616	 0.219793571613345
617	 0.220228538874369
618	 0.220683322453544
619	 0.221277480582291
620	 0.221832225285001
621	 0.222169890157625
622	 0.222429392428644
623	 0.223072551273622
624	 0.22362730136148
625	 0.223977960600826
626	 0.224212760337136
627	 0.22475623149788
628	 0.225304961002844
629	 0.225728804972699
630	 0.226029407283888
631	 0.226461396954347
632	 0.226968931869218
633	 0.227424239631577
634	 0.22765050725443
635	 0.228086505666259
636	 0.228563779811053
637	 0.228888686281023
638	 0.229350803312927
639	 0.229828006062772
640	 0.230279860133236
641	 0.230718893235004
642	 0.231135683557023
643	 0.231598617194987
644	 0.232111102324379
645	 0.232563073999711
646	 0.232949205946409
647	 0.233372854565161
648	 0.233894595544551
649	 0.234261393246564
650	 0.2346463300544
651	 0.235071352404724
652	 0.235448866664466
653	 0.235896921725794
654	 0.236351210378798
655	 0.236774542804563
656	 0.237232069977768
657	 0.237658071830421
658	 0.238107632514216
659	 0.238628198622693
660	 0.239037008227287
661	 0.239480247860763
662	 0.239969759004846
663	 0.240400830085995
664	 0.24090745910669
665	 0.241399720684012
666	 0.241825105379368
667	 0.242291232503923
668	 0.242762075255847
669	 0.243211843267095
670	 0.243635185655907
671	 0.244122224853497
672	 0.244611256181114
673	 0.245099998258015
674	 0.245642409337887
675	 0.246075888784871
676	 0.246470579510681
677	 0.246902495433951
678	 0.247356418496294
679	 0.247780652490989
680	 0.248218101185661
681	 0.248719755304608
682	 0.249141706139029
683	 0.249569972848115
684	 0.25002690064732
685	 0.250456027694621
686	 0.250878804338477
687	 0.251318248217234
688	 0.251766074960101
689	 0.25212590755524
690	 0.2525410961185
691	 0.25300647366965
692	 0.253461440058841
693	 0.253936031077127
694	 0.25438609658396
695	 0.254794540546822
696	 0.255178979897935
697	 0.255569927642431
698	 0.255961651090687
699	 0.256358055359716
700	 0.25682123187345
701	 0.25721192255677
702	 0.257566263764132
703	 0.257972167876078
704	 0.258325737925166
705	 0.258705432901056
706	 0.259115041709367
707	 0.259474556532641
708	 0.259894425370719
709	 0.260297771148866
710	 0.26063312164265
711	 0.260994795371486
712	 0.261372654980881
713	 0.261737246176922
714	 0.262069809213397
715	 0.262477682526183
716	 0.262861048093308
717	 0.263190224239721
718	 0.26351990361993
719	 0.263916727837168
720	 0.26428502464049
721	 0.264567379221423
722	 0.264852891215325
723	 0.26516596429052
724	 0.265527758297786
725	 0.265929601667237
726	 0.266265074942896
727	 0.266523717538471
728	 0.266780531666566
729	 0.267157973212779
730	 0.267420872915821
731	 0.267700825519871
732	 0.26806099511635
733	 0.268316313110451
734	 0.268536855466762
735	 0.268793613123264
736	 0.269118027404918
737	 0.269364183723594
738	 0.269584387346869
739	 0.269833624210227
740	 0.27014436701282
741	 0.270347246392373
742	 0.270601959574025
743	 0.270943715000601
744	 0.271144582521803
745	 0.271340139245861
746	 0.271535599314044
747	 0.271730129843788
748	 0.272026216996823
749	 0.272294930766797
750	 0.272497367072264
751	 0.272663007384182
752	 0.272880276123609
753	 0.273109914005212
754	 0.273326077456373
755	 0.273536863697583
756	 0.273759574479926
757	 0.273958624197884
758	 0.274117759204155
759	 0.274305193489781
760	 0.27442980866477
761	 0.274519666593521
762	 0.274640463308035
763	 0.274759748117511
764	 0.274954743771359
765	 0.275172709876837
766	 0.275266606618583
767	 0.275468416795158
768	 0.275585633005134
769	 0.275565960191036
770	 0.275714662204176
771	 0.275867033226161
772	 0.275993793561111
773	 0.276097696659029
774	 0.276147562403632
775	 0.276294002893109
776	 0.276486446447753
777	 0.27657179405165
778	 0.276577278832578
779	 0.2766693361265
780	 0.276857677447786
781	 0.276964859330935
782	 0.277045398082034
783	 0.27711079556959
784	 0.277185614600557
785	 0.277346070769919
786	 0.277412108689408
787	 0.277453062223907
788	 0.277583125646419
789	 0.27771314984804
790	 0.277712470332393
791	 0.277700001566633
792	 0.277899191670005
793	 0.277874363255155
794	 0.277892948638287
795	 0.278035795519411
796	 0.278055047844559
797	 0.278105406501196
798	 0.278146703560213
799	 0.278152498821758
800	 0.278236630507964
801	 0.278210286846547
802	 0.278157847307528
803	 0.27821893229986
804	 0.278312039843985
805	 0.278340860512137
806	 0.278335382561155
807	 0.278391108598315
808	 0.278367350681566
809	 0.27837024853922
810	 0.278429296572202
811	 0.278453697955841
812	 0.278497132469055
813	 0.278488592572284
814	 0.278424957003346
815	 0.278497538541042
816	 0.278553256818667
817	 0.278578975902367
818	 0.27859510554061
819	 0.278561398011662
820	 0.278602575074603
821	 0.278645318265012
822	 0.278558471713786
823	 0.2786072742026
824	 0.278722858846538
825	 0.278799289345899
826	 0.278740855802044
827	 0.278653194796986
828	 0.278663654004638
829	 0.278766002644289
830	 0.278747285777411
831	 0.27881602439571
832	 0.278826979404528
833	 0.278691709933191
834	 0.278708903733846
835	 0.278728897428391
836	 0.278739879434734
837	 0.278756155528632
838	 0.278678490352542
839	 0.278671996833728
840	 0.278741262637179
841	 0.278784575441988
842	 0.278773247288259
843	 0.278822567703625
844	 0.278852164346717
845	 0.27862631873362
846	 0.278663352243743
847	 0.278694617361338
848	 0.278592219414326
849	 0.278635727705794
850	 0.278697273290634
851	 0.278728219845218
852	 0.278719228801748
853	 0.278707145329137
854	 0.278775899259026
855	 0.278804385778544
856	 0.278691130565207
857	 0.278662351642207
858	 0.278714588988915
859	 0.278779961068552
860	 0.278782590837788
861	 0.278807819197139
862	 0.278763160676868
863	 0.278733912082058
864	 0.278890808916136
865	 0.278952957821972
866	 0.27885703105833
867	 0.278715584737471
868	 0.2787675615676
869	 0.278743313247968
870	 0.27875721565564
871	 0.278863893397413
872	 0.278934759189097
873	 0.278802967741438
874	 0.278773257665586
875	 0.278986267811789
876	 0.279002781951266
877	 0.279016728769192
878	 0.279062466849068
879	 0.279113979854335
880	 0.279091808196252
881	 0.279088210227948
882	 0.279129083699918
883	 0.279203185115907
884	 0.279275027398235
885	 0.279351607192197
886	 0.279376059453559
887	 0.279296853167427
888	 0.279253447584443
889	 0.27922935864689
890	 0.279283274955746
891	 0.279466998120522
892	 0.279390720394743
893	 0.279451664234369
894	 0.279672859939998
895	 0.279713727385083
896	 0.279740783731514
897	 0.279697500349351
898	 0.279685715718385
899	 0.279951207400244
900	 0.27995215413315
901	 0.279981198327004
902	 0.280175059217642
903	 0.280268259037518
904	 0.280223039934122
905	 0.2801653043338
906	 0.28021067606612
907	 0.280382332708042
908	 0.280518181643812
909	 0.280610003378748
910	 0.280672657450777
911	 0.280682461579741
912	 0.280738785909257
913	 0.28079328069366
914	 0.280838602041517
915	 0.28107797190549
916	 0.281042256681718
917	 0.281057575523007
918	 0.28137293924342
919	 0.281317290052454
920	 0.281331938481725
921	 0.281375370666039
922	 0.28135784495982
923	 0.281562416654755
924	 0.2816888245981
925	 0.281666044700274
926	 0.281607408696043
927	 0.281929578522185
928	 0.282037244498161
929	 0.281988511595653
930	 0.282072126378757
931	 0.282330799168202
932	 0.282304435577426
933	 0.28230694751118
934	 0.28267539086812
935	 0.282374512793195
936	 0.282269661399664
937	 0.282427522101321
938	 0.282554576839064
939	 0.28265963516731
940	 0.282673951954708
941	 0.282730409757817
942	 0.282963860432699
943	 0.283134493037723
944	 0.283017340107523
945	 0.28296556876606
946	 0.283354914490549
947	 0.283463768817042
948	 0.283395444927198
949	 0.283429491739175
950	 0.283738034020155
951	 0.283739684491148
952	 0.283875015768924
953	 0.284108490646754
954	 0.284205848393731
955	 0.284127725205739
956	 0.284127924135076
957	 0.284291074981424
958	 0.284525615887371
959	 0.284439548222911
960	 0.28461251235921
961	 0.284803431578361
962	 0.28468400874765
963	 0.284854546129378
964	 0.285061234883457
965	 0.285300815558629
966	 0.285526609841628
967	 0.28523958062949
968	 0.285489650412268
969	 0.285802288253194
970	 0.285695212557054
971	 0.286128499476418
972	 0.286038394594021
973	 0.285998948160444
974	 0.286479280595927
975	 0.286589373757188
976	 0.286835581486662
977	 0.286815001737787
978	 0.286562169478317
979	 0.287254244280053
980	 0.287358602215415
981	 0.287261117955005
982	 0.287337690289607
983	 0.287264928515734
984	 0.287489309425997
985	 0.287853053470679
986	 0.288116801337222
987	 0.288150764623658
988	 0.28836234549972
989	 0.288411183638564
990	 0.28828206262043
991	 0.288369242826211
992	 0.288689476992303
993	 0.289128968160447
994	 0.289367431943397
995	 0.289135220045235
996	 0.28911178507157
997	 0.289645663038266
998	 0.290181400014783
999	 0.289992579363626
1000	 0.289975446590826
1001	 0.289191265685639
1002	 0.289267870890355
1003	 0.289207347899309
1004	 0.289213579175268
1005	 0.289315640750908
1006	 0.289538410901903
1007	 0.28977280801705
1008	 0.289952249649321
1009	 0.290137227959809
1010	 0.29033935034601
1011	 0.290449392329714
1012	 0.29051562171198
1013	 0.290650070334249
1014	 0.290778366645789
1015	 0.290885639987639
1016	 0.291060355406418
1017	 0.29122541087095
1018	 0.291278554408711
1019	 0.291353917551006
1020	 0.291418840786019
1021	 0.291442791847321
1022	 0.291526178533463
1023	 0.291655074406954
1024	 0.291808188034523
1025	 0.291991655339606
1026	 0.29222726178124
1027	 0.292398013754237
1028	 0.29246604352314
1029	 0.292561236606515
1030	 0.292610962144915
1031	 0.292658878862467
1032	 0.292734144898065
1033	 0.292800240785019
1034	 0.292952356840396
1035	 0.293102761302669
1036	 0.293289122069307
1037	 0.293518907855857
1038	 0.293715865373767
1039	 0.293864032191004
1040	 0.294052580103078
1041	 0.294220374331483
1042	 0.294314517346653
1043	 0.294412366775564
1044	 0.294546000942045
1045	 0.294680895363513
1046	 0.29483003240972
1047	 0.295015050737259
1048	 0.29513360703099
1049	 0.295260970508136
1050	 0.295416699232737
1051	 0.295512087572091
1052	 0.295621160020725
1053	 0.295758159371945
1054	 0.295906052870487
1055	 0.296082605869098
1056	 0.296283078235113
1057	 0.296418005356026
1058	 0.296494306711989
1059	 0.296609569899459
1060	 0.29674543061267
1061	 0.296842416674117
1062	 0.297009711609225
1063	 0.297272518473054
1064	 0.297478837909036
1065	 0.297625867423238
1066	 0.297897013488977
1067	 0.298137177211282
1068	 0.298279679161379
1069	 0.298379226434666
1070	 0.298515031996496
1071	 0.298602599290447
1072	 0.298612404829073
1073	 0.298776287221966
1074	 0.298924957375115
1075	 0.299077329468863
1076	 0.29930451084169
1077	 0.299490210793913
1078	 0.299631565441822
1079	 0.299779464979205
1080	 0.29990149256399
1081	 0.299976172988693
1082	 0.300098053346883
1083	 0.300229550762378
1084	 0.300365538132299
1085	 0.300490874838216
1086	 0.300642420439375
1087	 0.300787716291745
1088	 0.300955342202997
1089	 0.301047934087208
1090	 0.301095761434034
1091	 0.301117969754335
1092	 0.301135332765396
1093	 0.301262078734567
1094	 0.301453072147082
1095	 0.301606624205727
1096	 0.301650170671271
1097	 0.301698433237914
1098	 0.301819546821907
1099	 0.301975912195678
1100	 0.302085150533989
1101	 0.302246662292928
1102	 0.302358751508154
1103	 0.302393678528457
1104	 0.302470013133247
1105	 0.302576044582805
1106	 0.302644597108655
1107	 0.302680339303992
1108	 0.302726446415376
1109	 0.302766151091085
1110	 0.302847416076554
1111	 0.303023186077662
1112	 0.303146088463363
1113	 0.303237284159882
1114	 0.30335982825737
1115	 0.303456701217952
1116	 0.303457108320071
1117	 0.303501944598791
1118	 0.303576971002463
1119	 0.303635502428432
1120	 0.303650735421337
1121	 0.303745793069611
1122	 0.303893872104087
1123	 0.304095491655149
1124	 0.304137506655217
1125	 0.304058265331947
1126	 0.304096526223724
1127	 0.304028315540688
1128	 0.304018675254762
1129	 0.304255014842046
1130	 0.304372959212669
1131	 0.304458115478691
1132	 0.304529920547307
1133	 0.304602101670228
1134	 0.304647874262093
1135	 0.304654709658191
1136	 0.304692809585989
1137	 0.304743768409563
1138	 0.304789320569321
1139	 0.304866668076835
1140	 0.304862088799809
1141	 0.304902245070521
1142	 0.304935591452186
1143	 0.304950335751456
1144	 0.305035865400897
1145	 0.305079313550555
1146	 0.305115413437667
1147	 0.305127112466845
1148	 0.305130802315051
1149	 0.305110632617068
1150	 0.30504180674479
1151	 0.305014128498628
1152	 0.304970796859314
1153	 0.304976966533943
1154	 0.305026733819994
1155	 0.305058982663795
1156	 0.305105208834491
1157	 0.305168326991443
1158	 0.305199032922746
1159	 0.305299336684075
1160	 0.30541266016761
1161	 0.305518000240877
1162	 0.305606713035761
1163	 0.30568554364033
1164	 0.305756066938958
1165	 0.305806313010804
1166	 0.30587398089712
1167	 0.305943334707107
1168	 0.306022905909042
1169	 0.30610390442724
1170	 0.306201231921115
1171	 0.306332473485502
1172	 0.306424715112001
1173	 0.306485399081562
1174	 0.306590164462207
1175	 0.306738206266438
1176	 0.306804751225677
1177	 0.306900692611444
1178	 0.306977003430397
1179	 0.306976478261387
1180	 0.307034737523672
1181	 0.307101372751821
1182	 0.307197941034397
1183	 0.307294524330989
1184	 0.307405339434214
1185	 0.307506848825303
1186	 0.307642766780616
1187	 0.307718123402018
1188	 0.307757063112982
1189	 0.307802431645853
1190	 0.307793140018107
1191	 0.307833791555252
1192	 0.307909083669459
1193	 0.307974280278531
1194	 0.308071013130863
1195	 0.308133064989245
1196	 0.308198024117222
1197	 0.308237619656352
1198	 0.308279398216348
1199	 0.30830957695237
1200	 0.308350321580992
1201	 0.308386437782476
1202	 0.308430493947717
1203	 0.30848022303736
1204	 0.308531936299602
1205	 0.308566596363595
1206	 0.308642831346052
1207	 0.308764630158127
1208	 0.30884566132097
1209	 0.308949301171688
1210	 0.309022063247681
1211	 0.309040399906996
1212	 0.309080500375315
1213	 0.309131689246444
1214	 0.309155272267344
1215	 0.309240390665026
1216	 0.309307728222602
1217	 0.309339508572378
1218	 0.309353960119708
1219	 0.309399692740841
1220	 0.309408695509525
1221	 0.30946208378614
1222	 0.309593953518151
1223	 0.309650628832849
1224	 0.309684971459722
1225	 0.309701517760384
1226	 0.309636917090043
1227	 0.309669209097163
1228	 0.309740501153482
1229	 0.309804763453446
1230	 0.309963059042432
1231	 0.3100414367878
1232	 0.310042231388037
1233	 0.310078949463096
1234	 0.310122677141279
1235	 0.310131889726141
1236	 0.310167090412072
1237	 0.310215784194656
1238	 0.310275615949008
1239	 0.310345149471874
1240	 0.310398225196515
1241	 0.310461689211645
1242	 0.31052230333999
1243	 0.310566434787548
1244	 0.310614031789687
1245	 0.310673037284127
1246	 0.31072859878312
1247	 0.310766033596756
1248	 0.310819124562945
1249	 0.310891684535045
1250	 0.310953858729164
1251	 0.311024003151217
1252	 0.311076704834165
1253	 0.311123955698229
1254	 0.311159566058416
1255	 0.311183540460436
1256	 0.311178184896811
1257	 0.311220403545621
1258	 0.311268706174073
1259	 0.311329925115019
1260	 0.311433001862993
1261	 0.311492429307962
1262	 0.31153230734714
1263	 0.311585340121674
1264	 0.311630778564499
1265	 0.311678934251844
1266	 0.311755169441064
1267	 0.31178470472083
1268	 0.311763275772521
1269	 0.311787468058148
1270	 0.311805801433833
1271	 0.311836377987184
1272	 0.31192058589078
1273	 0.311966415189016
1274	 0.311983076411983
1275	 0.312008138344482
1276	 0.312009841319933
1277	 0.312036760168149
1278	 0.312076232857813
1279	 0.312141706143182
1280	 0.31216487612486
1281	 0.312176082582826
1282	 0.312212158322991
1283	 0.31224796441034
1284	 0.312256075018692
1285	 0.3122719816366
1286	 0.312286231807917
1287	 0.312247152801158
1288	 0.312259595426388
1289	 0.312350132491939
1290	 0.312363120243921
1291	 0.312321924443945
1292	 0.312326217984478
1293	 0.31229352205886
1294	 0.312313983733801
1295	 0.312442326085069
1296	 0.312487101873259
1297	 0.312504820994421
1298	 0.312520542761808
1299	 0.312513787702863
1300	 0.312446861296388
1301	 0.312446848972331
1302	 0.312472751022565
1303	 0.312501274464294
1304	 0.312554591964578
1305	 0.312578468578893
1306	 0.312604099456074
1307	 0.312613380162083
1308	 0.312615294584559
1309	 0.312591587995066
1310	 0.312523635334438
1311	 0.312510132167812
1312	 0.312510000806152
1313	 0.312491330516575
1314	 0.31251434361335
1315	 0.312498853542017
1316	 0.312439070275057
1317	 0.312384088880324
1318	 0.312341183551406
1319	 0.312269500053221
1320	 0.3121524619936
1321	 0.312064595476205
1322	 0.311974278293859
1323	 0.311889821257393
1324	 0.311822401564501
1325	 0.311756786684279
1326	 0.311708284362836
1327	 0.311643112875648
1328	 0.311547598590552
1329	 0.311436301288266
1330	 0.311334984250835
1331	 0.31121593604332
1332	 0.3110882562949
1333	 0.310963259117782
1334	 0.310845928330625
1335	 0.310704335791793
1336	 0.310573650938127
1337	 0.310473113809248
1338	 0.310352537538122
1339	 0.31020979576417
1340	 0.310081990584528
1341	 0.309959939127726
1342	 0.309842118452531
1343	 0.309731974954964
1344	 0.309609295625343
1345	 0.309503509722864
1346	 0.309368481154548
1347	 0.309196683383503
1348	 0.30904127536753
1349	 0.308881846435037
1350	 0.308713527977679
1351	 0.308561638748797
1352	 0.308437848970412
1353	 0.308311632104631
1354	 0.308141945950017
1355	 0.307976409896088
1356	 0.307794434630938
1357	 0.307622557579774
1358	 0.307441079575224
1359	 0.307287024766597
1360	 0.307134967152781
1361	 0.307007386303221
1362	 0.306913021830777
1363	 0.306798119172013
1364	 0.306735513806076
1365	 0.306564319845746
1366	 0.306298476906365
1367	 0.306113275644187
1368	 0.305907659544648
1369	 0.305715505527003
1370	 0.305618846418648
1371	 0.305428315449051
1372	 0.305193955895399
1373	 0.304920858941032
1374	 0.30462178870402
1375	 0.304272197721537
1376	 0.303879099102141
1377	 0.303438832082271
1378	 0.302945121621271
1379	 0.302402977768012
1380	 0.30176636184096
1381	 0.30107327467848
1382	 0.300309253879887
1383	 0.299476232620835
1384	 0.298617807504081
1385	 0.297685728559303
1386	 0.296810110981936
1387	 0.295897672936227
1388	 0.295051749633847
1389	 0.294242242465415
1390	 0.293455580310763
1391	 0.292689735458281
1392	 0.29196515974904
1393	 0.291286932686412
1394	 0.290588939122628
1395	 0.289934315989685
1396	 0.289216774371156
1397	 0.288518329193425
1398	 0.287713122609546
1399	 0.28682766850587
1400	 0.285938687617096
1401	 0.284978732264536
1402	 0.284008433099961
1403	 0.283023690808169
1404	 0.282023001852219
1405	 0.280940657008306
1406	 0.279929345223406
1407	 0.278924753491379
1408	 0.27796223731437
1409	 0.277052731376702
1410	 0.276245723087353
1411	 0.275487305624726
1412	 0.274803938421529
1413	 0.274235798512541
1414	 0.273698083143836
1415	 0.273267897536108
1416	 0.272952102956934
1417	 0.272708626421387
1418	 0.272563449948977
1419	 0.272456148849991
1420	 0.272438939064184
1421	 0.272435197219611
1422	 0.272474468037701
1423	 0.272544657191293
1424	 0.272675320737847
1425	 0.272787180495403
1426	 0.272922099055717
1427	 0.27305346764037
1428	 0.273156004656262
1429	 0.273333727396954
1430	 0.273547803464904
1431	 0.273780676978338
1432	 0.274099008493175
1433	 0.274348781526311
1434	 0.274558865515137
1435	 0.274810005319159
1436	 0.275051580284127
1437	 0.275315901066124
1438	 0.275632234681162
1439	 0.275920103360966
1440	 0.276193641853872
1441	 0.276470495108629
1442	 0.276759553788777
1443	 0.277024554886429
1444	 0.277282291795184
1445	 0.277522276492899
1446	 0.27774541546562
1447	 0.277960484330842
1448	 0.278188905598991
1449	 0.27842181298177
1450	 0.278629727205372
1451	 0.278821780526031
1452	 0.278997654521216
1453	 0.279153717465838
1454	 0.279306630907939
1455	 0.279450260135763
1456	 0.279575200337224
1457	 0.279682129904393
1458	 0.279783625615156
1459	 0.279860340363197
1460	 0.279963709003195
1461	 0.280058637743153
1462	 0.280174202474905
1463	 0.280304746142436
1464	 0.280457426402885
1465	 0.280625146270509
1466	 0.2808103575253
1467	 0.281026530975776
1468	 0.28122988051524
1469	 0.281427246267905
1470	 0.281656528166625
1471	 0.281882932305959
1472	 0.282157182184831
1473	 0.282487052994342
1474	 0.282794786287676
1475	 0.283123844384614
1476	 0.283450231593264
1477	 0.283771796666886
1478	 0.284092116702353
1479	 0.284421454681839
1480	 0.2847404880198
1481	 0.28503359651966
1482	 0.285365390400906
1483	 0.285734501721039
1484	 0.286070634858969
1485	 0.286420990705658
1486	 0.286742600801392
1487	 0.287010921786083
1488	 0.287306623804804
1489	 0.287619033539174
1490	 0.287915003203939
1491	 0.288195088044248
1492	 0.288509038179869
1493	 0.288794814730126
1494	 0.289037171458706
1495	 0.289314040723527
1496	 0.289581989126585
1497	 0.289843619323815
1498	 0.290134434262294
1499	 0.290400564279046
1500	 0.290649918098566
1501	 0.290924391502567
1502	 0.291174139046027
1503	 0.291403456484591
1504	 0.291633535622092
1505	 0.291842590288396
1506	 0.292046745911391
1507	 0.292272755162519
1508	 0.292519508231052
1509	 0.29275355249789
1510	 0.29299176940141
1511	 0.293228510773078
1512	 0.293460284719054
1513	 0.293692192132448
1514	 0.29394793408169
1515	 0.29414147837882
1516	 0.294299653958905
1517	 0.294470644661838
1518	 0.294611212555551
1519	 0.294762283252356
1520	 0.29491172524875
1521	 0.295087240094757
1522	 0.295263669117962
1523	 0.295442173448487
1524	 0.295656153203215
1525	 0.295847679501766
1526	 0.296031700754511
1527	 0.296191929216698
1528	 0.296336419325265
1529	 0.29648982043699
1530	 0.296621362166291
1531	 0.296762692850884
1532	 0.296929177212903
1533	 0.297069381882739
1534	 0.297173156047875
1535	 0.297313590691499
1536	 0.297472139761087
1537	 0.297615394106455
1538	 0.29778046299362
1539	 0.297918610308355
1540	 0.298027357579531
1541	 0.298147078529464
1542	 0.298256446163279
1543	 0.298375449413993
1544	 0.298503044189531
1545	 0.298624807449291
1546	 0.298754069864815
1547	 0.298875140864144
1548	 0.298990415371746
1549	 0.299096608923985
1550	 0.299193459358939
1551	 0.299293273391901
1552	 0.299364143590842
1553	 0.299478108311026
1554	 0.299642086814762
1555	 0.29976265920562
1556	 0.299891955115794
1557	 0.300004194298257
1558	 0.300054006645897
1559	 0.300148184319977
1560	 0.300257502217192
1561	 0.300383380240612
1562	 0.300579132609534
1563	 0.300701621045069
1564	 0.300790867991955
1565	 0.300882304429765
1566	 0.300910757157689
1567	 0.300969884173212
1568	 0.301056444176914
1569	 0.301141051551875
1570	 0.301232148297842
1571	 0.301318721316076
1572	 0.301410901472195
1573	 0.301494304543247
1574	 0.301570097426092
1575	 0.301639323436774
1576	 0.301724961315152
1577	 0.301804742422491
1578	 0.301887464751543
1579	 0.301994697472026
1580	 0.30205483957896
1581	 0.302105256653052
1582	 0.302151575056918
1583	 0.302164765091845
1584	 0.302232678205265
1585	 0.302333748778656
1586	 0.302408605210653
1587	 0.302483536826923
1588	 0.30254262146131
1589	 0.302573716830411
1590	 0.302613055022903
1591	 0.302686279022146
1592	 0.302743797760374
1593	 0.302807469055356
1594	 0.302897990864151
1595	 0.302953709944948
1596	 0.303032967254178
1597	 0.303114938993237
1598	 0.303191247347956
1599	 0.303299947188049
1600	 0.303352511361976
1601	 0.30337910481016
1602	 0.303448818377903
1603	 0.303507376671058
1604	 0.303550552620358
1605	 0.303609052481381
1606	 0.303618685139691
1607	 0.303602610043246
1608	 0.303632895924122
1609	 0.303671309178031
1610	 0.303712952061886
1611	 0.303791726860754
1612	 0.303866111330976
1613	 0.303927010435362
1614	 0.30403043224829
1615	 0.304097506702205
1616	 0.304153195510105
1617	 0.304235291187876
1618	 0.304262197103869
1619	 0.304240437528518
1620	 0.304269252977454
1621	 0.304291872232691
1622	 0.30433949138223
1623	 0.304423187597313
1624	 0.30447033554123
1625	 0.304515558803419
1626	 0.304530088263323
1627	 0.304509269753381
1628	 0.304551265310282
1629	 0.304604811226275
1630	 0.304702841194858
1631	 0.304806401417362
1632	 0.304822122575384
1633	 0.30483959271239
1634	 0.30489462819955
1635	 0.304932157970042
1636	 0.305004237194265
1637	 0.305083713450959
1638	 0.305139882146275
1639	 0.305165817986791
1640	 0.305176197312827
1641	 0.305207436324916
1642	 0.305243754224416
1643	 0.305270156178519
1644	 0.305311052075858
1645	 0.305345525333653
1646	 0.305364166245663
1647	 0.30537931791019
1648	 0.305371786247941
1649	 0.305400930914717
1650	 0.305468181537362
1651	 0.305501815802535
1652	 0.305551636269223
1653	 0.305585121051755
1654	 0.305564451976106
1655	 0.305565874339394
1656	 0.30557618813189
1657	 0.305596688656768
1658	 0.305623693607611
1659	 0.305658019943462
1660	 0.305713256234505
1661	 0.305759265590843
1662	 0.305818165620945
1663	 0.305853446926666
1664	 0.30588705194758
1665	 0.305889304972369
1666	 0.305830447135885
1667	 0.305815426476095
1668	 0.305823121839871
1669	 0.30579938549143
1670	 0.305783334231292
1671	 0.305762948769645
1672	 0.305700556145377
1673	 0.305658003294522
1674	 0.305627541675412
1675	 0.305613852456001
1676	 0.30561623949228
1677	 0.305608090177067
1678	 0.30563171877
1679	 0.30561722602164
1680	 0.305509861581697
1681	 0.305525173372967
1682	 0.305617802302156
1683	 0.305664174571338
1684	 0.305797204466232
1685	 0.305837392342129
1686	 0.305788436605352
1687	 0.305754297874103
1688	 0.305672891434143
1689	 0.305651233146203
1690	 0.305670822114569
1691	 0.305635518070307
1692	 0.305605722422286
1693	 0.305571308535099
1694	 0.305476097905246
1695	 0.305419917887986
1696	 0.305383796505751
1697	 0.305387182276233
1698	 0.305427638403636
1699	 0.305435341897175
1700	 0.30548428634869
1701	 0.3054823871657
1702	 0.305408853337483
1703	 0.305386799715792
1704	 0.305392904478266
1705	 0.305357863067293
1706	 0.305311885543474
1707	 0.305269905713075
1708	 0.305209260292566
1709	 0.30515894327358
1710	 0.305126352103521
1711	 0.305073777275048
1712	 0.304998619358816
1713	 0.304941800557473
1714	 0.304886852434589
1715	 0.304833715441979
1716	 0.304788985253207
1717	 0.304740871555181
1718	 0.304692629162161
1719	 0.304650172511785
1720	 0.304611931800736
1721	 0.304514692181362
1722	 0.304381011608095
1723	 0.30424593060453
1724	 0.304094531166347
1725	 0.303952168330499
1726	 0.303872622299451
1727	 0.303841537770771
1728	 0.303757461403216
1729	 0.303651620909524
1730	 0.303519269455996
1731	 0.303364173413762
1732	 0.303238294944029
1733	 0.30312094885776
1734	 0.303048486240294
1735	 0.302951803128367
1736	 0.30284361645145
1737	 0.30273602638514
1738	 0.302644507529949
1739	 0.302558648843549
1740	 0.302444469635972
1741	 0.302349927131294
1742	 0.302227976942655
1743	 0.302040014423124
1744	 0.301903681415648
1745	 0.301798110666794
1746	 0.301669021099076
1747	 0.30155615971367
1748	 0.301429069271146
1749	 0.30127757292092
1750	 0.301136139555452
1751	 0.300985687508466
1752	 0.300854630228122
1753	 0.300714576394723
1754	 0.300607291695776
1755	 0.300560746853109
1756	 0.300448227207405
1757	 0.30031688493494
1758	 0.300198117425912
1759	 0.300040031996698
1760	 0.299908622689194
1761	 0.299823931030753
1762	 0.299728749251418
1763	 0.299638846975821
1764	 0.299556729314241
1765	 0.2994886952681
1766	 0.29943286643252
1767	 0.299372353735874
1768	 0.299288800067327
1769	 0.299164655322433
1770	 0.299012230508655
1771	 0.298803114274109
1772	 0.298671118728361
1773	 0.298595955304546
1774	 0.298506775139524
1775	 0.298473038741289
1776	 0.298396763104054
1777	 0.298268122651049
1778	 0.298174931093116
1779	 0.298119231305592
1780	 0.298133331917948
1781	 0.298073090481437
1782	 0.297963736338292
1783	 0.297870662313666
1784	 0.297725798556776
1785	 0.297628528787052
1786	 0.297561767993574
1787	 0.297532137529439
1788	 0.297549697881946
1789	 0.297547091919678
1790	 0.29756422612018
1791	 0.297574605753794
1792	 0.2975769427381
1793	 0.297468041184944
1794	 0.297419736639608
1795	 0.297335270228553
1796	 0.297287605845667
1797	 0.29734163502612
1798	 0.297369924249179
1799	 0.297317187281703
1800	 0.297274649272736
1801	 0.297303284473106
1802	 0.297291646733665
1803	 0.297282726777581
1804	 0.297327730830756
1805	 0.29728476992064
1806	 0.297244993096214
1807	 0.297215238587789
1808	 0.297182845543411
1809	 0.297168902215269
1810	 0.297114222981811
1811	 0.297124968585293
1812	 0.297123755733303
1813	 0.2970973435366
1814	 0.297083101707849
1815	 0.297081098641582
1816	 0.29705083878534
1817	 0.296987828404102
1818	 0.296917763455237
1819	 0.296866362425873
1820	 0.296833145193193
1821	 0.296794426050769
1822	 0.296772444188117
1823	 0.296788810626729
1824	 0.296769522933487
1825	 0.296754786600781
1826	 0.296768117023563
1827	 0.296694775434454
1828	 0.296539317186011
1829	 0.296480985191129
1830	 0.296424100882743
1831	 0.295301112477191
1832	 0.295261956122363
1833	 0.295228007491061
1834	 0.295194239364301
1835	 0.295284177773552
1836	 0.295283402198213
1837	 0.295183615057427
1838	 0.295127937649759
1839	 0.295078779368534
1840	 0.295027898573645
1841	 0.295016874487787
1842	 0.294976241826042
1843	 0.294912796618059
1844	 0.294848452407832
1845	 0.294750528844685
1846	 0.294618460414517
1847	 0.294485824637673
1848	 0.294330280359638
1849	 0.294198802495341
1850	 0.294052447379274
1851	 0.293834678155218
1852	 0.293657289546624
1853	 0.293334633843012
1854	 0.292992718404507
1855	 0.292578532762346
1856	 0.292244805481363
1857	 0.291913079762818
1858	 0.29155621824386
1859	 0.291288112573285
1860	 0.290835941276781
1861	 0.290331986453034
1862	 0.289778049404363
1863	 0.289152876807474
1864	 0.288458878621657
1865	 0.287694742481087
1866	 0.286850378419297
1867	 0.285934069879252
1868	 0.284921296517846
1869	 0.283903651276822
1870	 0.282790422149709
1871	 0.281629159054581
1872	 0.280480018646139
1873	 0.279269077636471
1874	 0.277959649306437
1875	 0.276621341608111
1876	 0.275236074028769
1877	 0.273633757785485
1878	 0.271933762852433
1879	 0.270144264464047
1880	 0.268215015809823
1881	 0.266128425649696
1882	 0.264013739362783
1883	 0.261832023238849
1884	 0.259559254508251
1885	 0.257157535672209
1886	 0.254595966188774
1887	 0.251854091368146
1888	 0.24901052102443
1889	 0.246137879156747
1890	 0.243167573088142
1891	 0.240168225181294
1892	 0.237117910653511
1893	 0.234009422136176
1894	 0.230857028622546
1895	 0.227718745092405
1896	 0.224603476076344
1897	 0.221582442238345
1898	 0.218545732970273
1899	 0.215629165172448
1900	 0.21292189722931
1901	 0.210374718805456
1902	 0.207954670096353
1903	 0.205761510793333
1904	 0.203746636773436
1905	 0.20183884852172
1906	 0.200095372948904
1907	 0.198592025202423
1908	 0.197211166749365
1909	 0.195983426011969
1910	 0.195008191388463
1911	 0.194197705097002
1912	 0.193557019345289
1913	 0.193106628151585
1914	 0.192841875375692
1915	 0.192622453683402
1916	 0.192432008806774
1917	 0.192265455676332
1918	 0.192228985927294
1919	 0.192301778830861
1920	 0.192455650084118
1921	 0.192756669942833
1922	 0.193076598355965
1923	 0.193388922945702
1924	 0.193697247197299
1925	 0.194072449858382
1926	 0.194524492339872
1927	 0.194942778520974
1928	 0.195373984256416
1929	 0.195913046605518
1930	 0.196396548261508
1931	 0.19689126266978
1932	 0.197447356125008
1933	 0.197949678666475
1934	 0.198410118585191
1935	 0.198824872535562
1936	 0.199211907068235
1937	 0.199611821507335
1938	 0.200048737628976
1939	 0.200499793326246
1940	 0.201023674748528
1941	 0.201567345817725
1942	 0.202157616467672
1943	 0.202774398768301
1944	 0.20331268363027
1945	 0.203894625099931
1946	 0.20453665011433
1947	 0.205080611522954
1948	 0.205557923089311
1949	 0.206121518169502
1950	 0.206650211983801
1951	 0.207079502880032
1952	 0.207651813935051
1953	 0.208225205598742
1954	 0.208773439709288
1955	 0.209383133030546
1956	 0.209910568713192
1957	 0.210432598119404
1958	 0.210949425443698
1959	 0.211413616416936
1960	 0.211927291796897
1961	 0.212452645747067
1962	 0.212995401831303
1963	 0.213616866171979
1964	 0.214217246675539
1965	 0.214768767466424
1966	 0.215381929704051
1967	 0.216004172390924
1968	 0.216650237278214
1969	 0.217283804608157
1970	 0.217972115628332
1971	 0.218581507498135
1972	 0.219116977334757
1973	 0.219701065384344
1974	 0.220266078467644
1975	 0.220884149720483
1976	 0.221521988043579
1977	 0.222221905646164
1978	 0.222916211062137
1979	 0.223582528987872
1980	 0.224256413640722
1981	 0.224826021167868
1982	 0.225427714462142
1983	 0.225994341459238
1984	 0.226614516485055
1985	 0.227233468540033
1986	 0.22792312362805
1987	 0.228673827504392
1988	 0.229422557118834
1989	 0.230171471402099
1990	 0.23082956672465
1991	 0.231469981263711
1992	 0.232129594745289
1993	 0.232811317845753
1994	 0.23352663338096
1995	 0.234185655182707
1996	 0.234787649254209
1997	 0.235424564450199
1998	 0.236054564493117
1999	 0.236694771055421
2000	 0.237310419365616
2001	 0.238033543687953
2002	 0.238773584154895
2003	 0.239456543724158
2004	 0.240280797055174
2005	 0.241039762616132
2006	 0.241680829790922
2007	 0.242321839771357
2008	 0.24292814030746
2009	 0.243427762258848
2010	 0.244016624470847
2011	 0.244616513930324
2012	 0.245253183062078
2013	 0.245946990128026
2014	 0.246587066104638
2015	 0.247250489246051
2016	 0.247870850903074
2017	 0.248439001682142
2018	 0.249059849608465
2019	 0.249596346247278
2020	 0.250177974953012
2021	 0.250734950988853
2022	 0.25125750463149
2023	 0.251762136391371
2024	 0.252288087904782
2025	 0.252745511918648
2026	 0.253136128376338
2027	 0.253570785055419
2028	 0.253982591267947
2029	 0.254415118885189
2030	 0.254832625842498
2031	 0.255234683527137
2032	 0.255733157878121
2033	 0.25624445504703
2034	 0.256790972699365
2035	 0.257375063287158
2036	 0.257842122791279
2037	 0.258209324476238
2038	 0.258573588190312
2039	 0.258858624835803
2040	 0.259204981178786
2041	 0.259522941475983
2042	 0.259915945607338
2043	 0.26038683374135
2044	 0.26083150799902
2045	 0.261217320162809
2046	 0.261626318259607
2047	 0.261988000621548
2048	 0.262335246406735
2049	 0.262807812466849
2050	 0.263095477758693
2051	 0.263414478909395
2052	 0.26372404527459
2053	 0.263994772685294
2054	 0.26416739580308
2055	 0.264478126836841
2056	 0.264857566947093
2057	 0.265183871330229
2058	 0.265559861646142
2059	 0.265896568545006
2060	 0.266145252855852
2061	 0.26641114729818
2062	 0.266744906695324
2063	 0.267054402826788
2064	 0.26746871589489
2065	 0.267796329104947
2066	 0.268115698675275
2067	 0.268439598300961
2068	 0.268734005062506
2069	 0.268949183092136
2070	 0.269245653916171
2071	 0.269567509270952
2072	 0.269858161625247
2073	 0.270196224833178
2074	 0.270476844794433
2075	 0.270701002685547
2076	 0.270927169874008
2077	 0.271146339097269
2078	 0.271402328957725
2079	 0.271653587423357
2080	 0.271980393215398
2081	 0.272287562363578
2082	 0.272635384544696
2083	 0.272930660520561
2084	 0.273207837518124
2085	 0.273461742011308
2086	 0.273691603768058
2087	 0.273918170403045
2088	 0.274078848063351
2089	 0.274339075486124
2090	 0.274665842049458
2091	 0.274943052514126
2092	 0.275256447470265
2093	 0.275589497942343
2094	 0.275800486417337
2095	 0.275933507609139
2096	 0.276128490595194
2097	 0.276364809213673
2098	 0.276611513241465
2099	 0.276915921500372
2100	 0.277178735297628
2101	 0.27745394357958
2102	 0.277681985813365
2103	 0.277893796476368
2104	 0.278093934260499
2105	 0.278175788448364
2106	 0.278388254472112
2107	 0.278683498707643
2108	 0.278939974554392
2109	 0.279225439216089
2110	 0.279598216340113
2111	 0.279859721715842
2112	 0.280060775433134
2113	 0.280273736652861
2114	 0.280463531443847
2115	 0.280664967135323
2116	 0.280842704519313
2117	 0.281046058907146
2118	 0.281240012351488
2119	 0.281494873451529
2120	 0.281820396396551
2121	 0.28207249810584
2122	 0.282377148531153
2123	 0.282601605695914
2124	 0.282670014550802
2125	 0.282858053367818
2126	 0.28314067430007
2127	 0.283293470507758
2128	 0.283481427434153
2129	 0.283704623397926
2130	 0.28387833663347
2131	 0.284025070651958
2132	 0.284145844483411
2133	 0.284291937752038
2134	 0.284379291557313
2135	 0.284414430666749
2136	 0.284428980533198
2137	 0.284347706855526
2138	 0.284359932735996
2139	 0.284368046576096
2140	 0.284396914740711
2141	 0.284642021189429
2142	 0.284649620308501
2143	 0.284460792824126
2144	 0.284352487806158
2145	 0.284129010200823
2146	 0.283966555977213
2147	 0.283839567227747
2148	 0.283826209160349
2149	 0.283733046616553
2150	 0.283577718421812
2151	 0.283496185512405
2152	 0.283336349233133
2153	 0.283167094228116
2154	 0.282986414329666
2155	 0.282796008794844
2156	 0.282555923932217
2157	 0.282352569331572
2158	 0.282205884037153
2159	 0.28195350762876
2160	 0.281594292448358
2161	 0.28134677932269
2162	 0.281164392410027
2163	 0.280851836355212
2164	 0.28049867112607
2165	 0.28021963773255
2166	 0.279803778370016
2167	 0.279519102905261
2168	 0.279393346223474
2169	 0.27930009487021
2170	 0.279160129896776
2171	 0.278919082128147
2172	 0.278662262806254
2173	 0.278376791405955
2174	 0.278122663958717
2175	 0.277868205346905
2176	 0.277607111345391
2177	 0.277365947287546
2178	 0.277088377341752
2179	 0.276795901298231
2180	 0.276477839579748
2181	 0.27610565542212
2182	 0.275797967066044
2183	 0.275467199661352
2184	 0.275180649736586
2185	 0.275053846387013
2186	 0.274764906306432
2187	 0.27439770768532
2188	 0.27401314801633
2189	 0.27353017050897
2190	 0.273021331321387
2191	 0.272624708011553
2192	 0.272344340348828
2193	 0.272040068545173
2194	 0.271675809681265
2195	 0.271401337317005
2196	 0.271151414241052
2197	 0.27081155712743
2198	 0.270532489296289
2199	 0.270126469364981
2200	 0.269555787299573
2201	 0.269045021054536
2202	 0.268483468312946
2203	 0.268037356181457
2204	 0.267583310009125
2205	 0.267220100169869
2206	 0.266961085317671
2207	 0.266729130454326
2208	 0.266515446486262
2209	 0.266407077886852
2210	 0.26638413709374
2211	 0.266422837621156
2212	 0.266568506891411
2213	 0.26671627919667
2214	 0.266983537813897
2215	 0.267172949952173
2216	 0.267335773770046
2217	 0.267536636170975
2218	 0.267562235562885
2219	 0.267548281607587
2220	 0.267737683185805
2221	 0.26776549886652
2222	 0.267736143861287
2223	 0.267818619961337
2224	 0.267793195078472
2225	 0.2675857556935
2226	 0.26751039042169
2227	 0.267520613759931
2228	 0.267455395439488
2229	 0.267365936659333
2230	 0.267264480351057
2231	 0.267111134028049
2232	 0.2670299646598
2233	 0.266970857349516
2234	 0.266904004986671
2235	 0.266887633208344
2236	 0.266855566083617
2237	 0.266802031098489
2238	 0.266736402250105
2239	 0.266739224677628
2240	 0.266616263939745
2241	 0.266357220037781
2242	 0.266187492673321
2243	 0.265917920366989
2244	 0.265792858813126
2245	 0.265836449795161
2246	 0.265806087911705
2247	 0.26577841268929
2248	 0.265842763404107
2249	 0.265836169934886
2250	 0.26577156573616
2251	 0.265711892004254
2252	 0.265642412897239
2253	 0.265444280264684
2254	 0.265276147922309
2255	 0.265205430195402
2256	 0.264971466315629
2257	 0.264896638901882
2258	 0.264935986276081
2259	 0.264976315332312
2260	 0.265077533109841
2261	 0.265147478807336
2262	 0.265286795773633
2263	 0.265237912838543
2264	 0.265054987706875
2265	 0.264961520868431
2266	 0.264776706926327
2267	 0.264708102307809
2268	 0.264817650915221
2269	 0.264743907094149
2270	 0.264569232701646
2271	 0.264426756296588
2272	 0.26426246531019
2273	 0.264068482620081
2274	 0.263931374567381
2275	 0.263675011447459
2276	 0.263230451011224
2277	 0.262871103613491
2278	 0.262586115124991
2279	 0.262198791881602
2280	 0.261749789854695
2281	 0.261326148007475
2282	 0.260918813330418
2283	 0.26025595610784
2284	 0.259814041449382
2285	 0.259488817707893
2286	 0.25883770155206
2287	 0.258414115546192
2288	 0.258143712367779
2289	 0.257687590784693
2290	 0.257437996959669
2291	 0.257348207923167
2292	 0.257164308155976
2293	 0.256856347795829
2294	 0.256530230637004
2295	 0.256282222805504
2296	 0.255853565837249
2297	 0.255546560243589
2298	 0.255496154994033
2299	 0.255216896229431
2300	 0.255132663149086
2301	 0.255129695500737
2302	 0.25478599401561
2303	 0.254229402759185
2304	 0.253745711277775
2305	 0.252939461439671
2306	 0.252503433901248
2307	 0.252360288589867
2308	 0.252030862634858
2309	 0.251769463699981
2310	 0.251487436501264
2311	 0.251023373875519
2312	 0.250691987865512
2313	 0.250468211276262
2314	 0.250230184205359
2315	 0.249926423009496
2316	 0.249920603898963
2317	 0.250117619655482
2318	 0.250251725339901
2319	 0.250580535387807
2320	 0.250806773109956
2321	 0.250998804699513
2322	 0.251144698348446
2323	 0.251251632784597
2324	 0.251385648890408
2325	 0.251496255475162
2326	 0.251545663748223
2327	 0.251681497916844
2328	 0.251613567146068
2329	 0.251286389279859
2330	 0.251112265668179
2331	 0.2508856501947
2332	 0.250694403137731
2333	 0.250648546160497
2334	 0.250555871057056
2335	 0.250376157534147
2336	 0.250265364263549
2337	 0.250211073722335
2338	 0.250074414597704
2339	 0.2499522607651
2340	 0.249813822634154
2341	 0.249686138429284
2342	 0.249443596560084
2343	 0.249098766292946
2344	 0.248660120358544
2345	 0.24819954084638
2346	 0.247789183727773
2347	 0.2474294705499
2348	 0.247244776855059
2349	 0.247086587627308
2350	 0.246822676117033
2351	 0.246616216304857
2352	 0.246186620543719
2353	 0.245578347340388
2354	 0.245228864646799
2355	 0.24480102939549
2356	 0.244330506843973
2357	 0.244182254854652
2358	 0.243668349327315
2359	 0.243144580353501
2360	 0.242962780714097
2361	 0.242457239984921
2362	 0.242178816209192
2363	 0.242125662343115
2364	 0.241976426568352
2365	 0.242062493468406
2366	 0.241866382161839
2367	 0.241472990657057
2368	 0.240883630250089
2369	 0.239811748140895
2370	 0.239136376103936
2371	 0.238480050317439
2372	 0.237950289750316
2373	 0.237824228053994
2374	 0.2370542021732
2375	 0.236466385911388
2376	 0.236213763089378
2377	 0.23562161447936
2378	 0.235368038704463
2379	 0.235252654445799
2380	 0.234553325346946
2381	 0.233789103525235
2382	 0.233518766699069
2383	 0.23312777143241
2384	 0.232693177583439
2385	 0.23264045985574
2386	 0.232180247049986
2387	 0.231637048246464
2388	 0.231337073148668
2389	 0.230714542993064
2390	 0.23047336300746
2391	 0.23043099993577
2392	 0.230341817514532
2393	 0.230313768265121
2394	 0.229985661569182
2395	 0.229505212772502
2396	 0.228569024599806
2397	 0.227934216588022
2398	 0.227764240431432
2399	 0.227307070318655
2400	 0.226966598989165
2401	 0.226268844547336
2402	 0.225529162939339
2403	 0.225030986503938
2404	 0.224219653272004
2405	 0.223928460732489
2406	 0.223631910142446
2407	 0.222829969281801
2408	 0.222590139583104
2409	 0.222402712545042
2410	 0.221717206649496
2411	 0.221506108392001
2412	 0.221412249606776
2413	 0.22086219657912
2414	 0.220613792422612
2415	 0.220226571017447
2416	 0.21954851515768
2417	 0.21913536948323
2418	 0.218330771667023
2419	 0.217855725434376
2420	 0.217613185757338
2421	 0.216730000611505
2422	 0.216481911837615
2423	 0.215596060540132
2424	 0.21527119054389
2425	 0.215915212590953
2426	 0.21566763141154
2427	 0.215014264932212
2428	 0.214597602807876
2429	 0.213985203274048
2430	 0.21338239163359
2431	 0.213179803051794
2432	 0.212818867309904
2433	 0.211875744842817
2434	 0.211266608463608
2435	 0.211083024867118
2436	 0.210390370418905
2437	 0.209526534547439
2438	 0.20839863982513
2439	 0.207305146199456
2440	 0.20673665520735
2441	 0.206313552283779
2442	 0.206367264129954
2443	 0.206158463130499
2444	 0.205549702131996
2445	 0.204848831634711
2446	 0.203887026625652
2447	 0.203227923675301
2448	 0.202805798850401
2449	 0.202850090264718
2450	 0.202971304370666
2451	 0.202892434310362
2452	 0.202653934333843
2453	 0.202334560887798
2454	 0.202017372324884
2455	 0.200860152627936
2456	 0.199869691637917
2457	 0.199644816829391
2458	 0.198731020100814
2459	 0.198142371124108
2460	 0.198002514641977
2461	 0.197011232946003
2462	 0.196816409594649
2463	 0.197520696705736
2464	 0.197534319247453
2465	 0.197187315672237
2466	 0.196243149925129
2467	 0.194633665870438
2468	 0.194270890435661
2469	 0.194244008993719
2470	 0.193402055613349
2471	 0.193077509265248
2472	 0.191969689482668
2473	 0.189922606590613
2474	 0.189388188364022
2475	 0.189526617544015
2476	 0.189299526098635
2477	 0.190439495074159
2478	 0.190877993788313
2479	 0.191524089591171
2480	 0.191366207228764
2481	 0.189588197869467
2482	 0.18867467781495
2483	 0.187812475577518
2484	 0.187363116327431
2485	 0.187614966726549
2486	 0.187813864001263
2487	 0.18816245692499
2488	 0.187624336539876
2489	 0.187036436984796
2490	 0.186426519243649
2491	 0.186135116609725
2492	 0.185900450854745
2493	 0.186578815480172
2494	 0.18791699240506
2495	 0.186721678188079
2496	 0.186028072775781
2497	 0.185365865872231
2498	 0.183704185624142
2499	 0.184336762811426
2500	 0.185315553638857
