Wavelength	signature0010.asd
350	 0.132102221692696
351	 0.132624035352425
352	 0.127399601915078
353	 0.123625493879419
354	 0.126750068353855
355	 0.119124446722973
356	 0.117851680992696
357	 0.123142623389679
358	 0.122372201117888
359	 0.122795687309865
360	 0.121080855137914
361	 0.118546348912791
362	 0.123454647521055
363	 0.12229715443483
364	 0.12091533483943
365	 0.124094914083795
366	 0.124383330245126
367	 0.123631818243299
368	 0.121478918040502
369	 0.118494084781345
370	 0.122044325415501
371	 0.123810425610758
372	 0.124055935590557
373	 0.127555127919197
374	 0.126798318004336
375	 0.123987133128972
376	 0.12221219445573
377	 0.123982741435868
378	 0.122435520788948
379	 0.121979109333932
380	 0.12437292209471
381	 0.120849568546053
382	 0.121924177334484
383	 0.124479347588635
384	 0.123967014603901
385	 0.128183679260155
386	 0.128375915531983
387	 0.125261570880561
388	 0.124674872959671
389	 0.124365870254151
390	 0.125303910125048
391	 0.127734319106522
392	 0.13076793192622
393	 0.129417926828033
394	 0.128632346844949
395	 0.131195534909024
396	 0.131781761003854
397	 0.129041212969381
398	 0.126841123354661
399	 0.128682741309628
400	 0.129549623530891
401	 0.13010295822136
402	 0.13025762083722
403	 0.129653317265069
404	 0.130551848043356
405	 0.130633888118743
406	 0.129921451694659
407	 0.131795614893322
408	 0.133092353160772
409	 0.132412178503097
410	 0.130457684726925
411	 0.132110026918908
412	 0.132339562288057
413	 0.132167251410189
414	 0.133972236952965
415	 0.134137335504084
416	 0.133430065858871
417	 0.132775839766099
418	 0.132892287530571
419	 0.13309264216355
420	 0.13350990318078
421	 0.134275902302011
422	 0.135402535328288
423	 0.135697305912439
424	 0.135431159489703
425	 0.135381338412467
426	 0.136459192191585
427	 0.137105773451727
428	 0.137252321193971
429	 0.13775030626156
430	 0.138722915596568
431	 0.139235224540393
432	 0.13914273216538
433	 0.139442859404276
434	 0.140157835568614
435	 0.140767159408332
436	 0.140961065781154
437	 0.14141604060553
438	 0.142074001469499
439	 0.142550483272529
440	 0.142545210691499
441	 0.143404982721333
442	 0.144312427512655
443	 0.144642824174082
444	 0.144261166879644
445	 0.145337213922016
446	 0.146197008837411
447	 0.145856113114744
448	 0.146963282397057
449	 0.147885818120812
450	 0.148118351381597
451	 0.147875697103455
452	 0.148760885804218
453	 0.149282203098176
454	 0.14925896509846
455	 0.149852643543031
456	 0.150769637369131
457	 0.151273035537663
458	 0.151239589354757
459	 0.152065427737677
460	 0.152211671724715
461	 0.152092087256963
462	 0.152610064226859
463	 0.153582906129402
464	 0.153818591212881
465	 0.153566734478182
466	 0.154193351456547
467	 0.154586202620725
468	 0.155056981895252
469	 0.155637803270115
470	 0.155343386524315
471	 0.155830148539915
472	 0.156514898538051
473	 0.156481975183816
474	 0.156831526687687
475	 0.157186164284753
476	 0.157624960271877
477	 0.158494160897919
478	 0.158488453371929
479	 0.158525948647339
480	 0.159115396934755
481	 0.159449059333489
482	 0.159620280925305
483	 0.159827275477563
484	 0.160235216796364
485	 0.160648546256573
486	 0.161011618656142
487	 0.161356431963114
488	 0.161770937479442
489	 0.162198257064559
490	 0.162659678145743
491	 0.163188317506226
492	 0.163844988154071
493	 0.164308331612259
494	 0.164443768818107
495	 0.164434006222051
496	 0.16551146725524
497	 0.166100621184862
498	 0.166159191088641
499	 0.166835404724377
500	 0.167660236366782
501	 0.168254142029208
502	 0.168556680583691
503	 0.169060000507681
504	 0.169721998117386
505	 0.170334228451646
506	 0.170698118632874
507	 0.170937261698525
508	 0.171467327190049
509	 0.17210637198635
510	 0.172258177463085
511	 0.172919096133432
512	 0.173555983402815
513	 0.173886343851385
514	 0.174676626567654
515	 0.175305090532289
516	 0.175709548656875
517	 0.176093690477019
518	 0.1769741320706
519	 0.177494903512033
520	 0.177706409107024
521	 0.178496419932812
522	 0.1789924024601
523	 0.179390607217024
524	 0.179922877045224
525	 0.180446370787418
526	 0.18100267209984
527	 0.181660756694345
528	 0.182426179352696
529	 0.18286651175473
530	 0.183339902665542
531	 0.183981062351887
532	 0.184629604475123
533	 0.18538461964677
534	 0.18602141185242
535	 0.18646380592525
536	 0.187214865055967
537	 0.187770789113929
538	 0.188228026360045
539	 0.188936782391625
540	 0.18983837041465
541	 0.190664135379013
542	 0.191365160408164
543	 0.192183209032038
544	 0.192903013716732
545	 0.193630332914828
546	 0.194484902852345
547	 0.195393599585778
548	 0.196261101001066
549	 0.197101346934584
550	 0.197993633180276
551	 0.198956286783768
552	 0.199930025642408
553	 0.200898643959183
554	 0.201936375260822
555	 0.202810175343746
556	 0.20366471199795
557	 0.204685579451443
558	 0.205729204373381
559	 0.206742584016461
560	 0.207757374292842
561	 0.208854689331309
562	 0.209896809106852
563	 0.21085469640187
564	 0.211783011203221
565	 0.212864883345519
566	 0.213972825849581
567	 0.215084918945584
568	 0.216225682179484
569	 0.217477309212484
570	 0.218648232013543
571	 0.219681347084281
572	 0.220671175800143
573	 0.221724289632267
574	 0.222820928846953
575	 0.223917560042739
576	 0.224960796038217
577	 0.226111273369561
578	 0.227403608563192
579	 0.228766085784943
580	 0.229915983360787
581	 0.230972507807069
582	 0.232017634379507
583	 0.233038665617716
584	 0.233981741815399
585	 0.234889568388052
586	 0.235768922698577
587	 0.236425101451794
588	 0.237233328189463
589	 0.238171765646949
590	 0.239004738213712
591	 0.239781562138676
592	 0.240625481032022
593	 0.24151056846903
594	 0.242171375511067
595	 0.242890719476224
596	 0.243657421301848
597	 0.244359790655309
598	 0.244848359668125
599	 0.24541335542032
600	 0.246063147707599
601	 0.246598454190765
602	 0.247068070549546
603	 0.247528522124271
604	 0.247994722010309
605	 0.248388255555506
606	 0.248837924326095
607	 0.24929910260581
608	 0.249699211656455
609	 0.250148519083704
610	 0.250544036349588
611	 0.250909710650317
612	 0.251374874746656
613	 0.251746522855708
614	 0.252128819301026
615	 0.252574706181328
616	 0.252874776590634
617	 0.253237881087695
618	 0.253651807663576
619	 0.254035911445345
620	 0.254471897849042
621	 0.254907141653742
622	 0.255324628896501
623	 0.255757761965187
624	 0.256210628548464
625	 0.256584610024288
626	 0.256878610539813
627	 0.257435758311297
628	 0.257982113456318
629	 0.258405297963254
630	 0.258713196722417
631	 0.259118317333942
632	 0.259546306949526
633	 0.259993725334246
634	 0.2605920080246
635	 0.260972389999785
636	 0.261418997647128
637	 0.262149233362907
638	 0.26255313948807
639	 0.262967376910631
640	 0.263482509664679
641	 0.264019599770646
642	 0.264521110895563
643	 0.265002004332254
644	 0.265508164355802
645	 0.266125330861589
646	 0.266596840186126
647	 0.266952923838352
648	 0.26732094654
649	 0.267810246995192
650	 0.268385834105517
651	 0.268939095129793
652	 0.269337858161899
653	 0.269791575912312
654	 0.270271889938804
655	 0.27073051680416
656	 0.271149190046886
657	 0.271543953727826
658	 0.271990862151154
659	 0.272534955080326
660	 0.272981168893844
661	 0.273506773215562
662	 0.274103017570132
663	 0.27460138575107
664	 0.275133882835253
665	 0.275641921869052
666	 0.276100661070469
667	 0.27662351764635
668	 0.277166223802841
669	 0.277701436399109
670	 0.278209619006182
671	 0.278683915266965
672	 0.279216179389898
673	 0.279807461976983
674	 0.280367474663372
675	 0.280843585724848
676	 0.281343251032145
677	 0.281895734598474
678	 0.282254055842826
679	 0.282701910051221
680	 0.283224513215314
681	 0.283717148708192
682	 0.284314032345214
683	 0.2848912080259
684	 0.285399773382892
685	 0.285887569283082
686	 0.286434524946154
687	 0.28701095721516
688	 0.287566065608933
689	 0.288047106535098
690	 0.288604374705429
691	 0.289185980662784
692	 0.289692586061963
693	 0.290316515529661
694	 0.290852489411036
695	 0.291290488451412
696	 0.291843121981735
697	 0.292357185583998
698	 0.292862169029152
699	 0.293384732893526
700	 0.293856524430499
701	 0.294315520384676
702	 0.294775633874047
703	 0.295239932305526
704	 0.295709886468112
705	 0.296147248104427
706	 0.296551921053038
707	 0.296964308792956
708	 0.297368303927375
709	 0.297775061151044
710	 0.29819527192547
711	 0.298635751430613
712	 0.299000151552858
713	 0.299352823435956
714	 0.299795067550887
715	 0.300232247646805
716	 0.300654481141522
717	 0.301039338162192
718	 0.301356487124803
719	 0.301724789097395
720	 0.302087736003904
721	 0.302412802559893
722	 0.302795003292367
723	 0.303214373675518
724	 0.303571183896875
725	 0.303804384360214
726	 0.304212089308627
727	 0.304581005965555
728	 0.304863724625404
729	 0.305174284914321
730	 0.305435231769252
731	 0.305694810106727
732	 0.305994975933345
733	 0.30633383119794
734	 0.306629465338722
735	 0.306887466779514
736	 0.30713915088801
737	 0.307371888071804
738	 0.30763336110339
739	 0.30790723310025
740	 0.308138087739772
741	 0.308399578382907
742	 0.308707535119609
743	 0.309010495301667
744	 0.309166146722097
745	 0.309349775183362
746	 0.309592227865455
747	 0.309858103772315
748	 0.310039661562789
749	 0.31022095996521
750	 0.310457826636345
751	 0.310758094447435
752	 0.310925318617776
753	 0.311116405005398
754	 0.31136548394402
755	 0.311519997433749
756	 0.311648068501312
757	 0.311816350781283
758	 0.31203446325066
759	 0.312168792429105
760	 0.312274844882522
761	 0.312372550888233
762	 0.312475897967153
763	 0.312624965917528
764	 0.312818128261921
765	 0.312984072963792
766	 0.313019592858689
767	 0.313183595193599
768	 0.313312505679023
769	 0.313337215127808
770	 0.313470972150428
771	 0.313615259765687
772	 0.313730941241996
773	 0.313800812572187
774	 0.313812828845185
775	 0.313950005078898
776	 0.314124356332348
777	 0.314139003097316
778	 0.314253347720359
779	 0.314365618804092
780	 0.314437694949628
781	 0.314539762328292
782	 0.314659674458121
783	 0.314778040250192
784	 0.314864764647341
785	 0.314871653642579
786	 0.314826067794953
787	 0.314865428435536
788	 0.315068347421921
789	 0.315107814989146
790	 0.315159470022056
791	 0.315240321580738
792	 0.315260617514328
793	 0.315279014283927
794	 0.315306868181915
795	 0.315346325302481
796	 0.315393838633015
797	 0.315444699198264
798	 0.315483882665172
799	 0.31550055887369
800	 0.315499409717239
801	 0.315453553976787
802	 0.315433250348966
803	 0.315503036297352
804	 0.31555274860798
805	 0.315533469492753
806	 0.315500501327876
807	 0.315549489224495
808	 0.315489519099243
809	 0.315478885726969
810	 0.315546907971688
811	 0.315530559712421
812	 0.315523552269041
813	 0.315512491323385
814	 0.315502410565192
815	 0.315586734187303
816	 0.315587480024218
817	 0.315593506401484
818	 0.315695186143438
819	 0.315642319804317
820	 0.315602798995719
821	 0.315577680980832
822	 0.315498241655482
823	 0.315518937811999
824	 0.315485138407664
825	 0.315428189291912
826	 0.315547389696441
827	 0.315523317295131
828	 0.315502692973843
829	 0.315555854612836
830	 0.315516039494096
831	 0.315484183709226
832	 0.315475302520249
833	 0.315482681110106
834	 0.31550557821646
835	 0.315473698785403
836	 0.315442600921278
837	 0.315470300215092
838	 0.315398558112093
839	 0.315318634413442
840	 0.31525932543192
841	 0.315211220938147
842	 0.31522753047823
843	 0.315277821104298
844	 0.315307939387888
845	 0.315264659184032
846	 0.315293246832458
847	 0.315316506198523
848	 0.315276934746807
849	 0.315205230895217
850	 0.315149187565628
851	 0.315102790351139
852	 0.315069497528931
853	 0.315120468688197
854	 0.315097721672664
855	 0.315027792349864
856	 0.31498532006621
857	 0.31495656485475
858	 0.31500882478661
859	 0.315054528520488
860	 0.314990660299166
861	 0.315075561643329
862	 0.315142458678803
863	 0.315133380172592
864	 0.315088552721138
865	 0.314959824807832
866	 0.314876757856541
867	 0.314896564981278
868	 0.314970571236411
869	 0.31502445050804
870	 0.315036535818533
871	 0.315013907943533
872	 0.314987473559194
873	 0.31492076553447
874	 0.315028943116673
875	 0.315289034763286
876	 0.315062357848568
877	 0.315042354347465
878	 0.315144062860668
879	 0.315140779781137
880	 0.315118688260087
881	 0.315094805038253
882	 0.315117863534044
883	 0.315207791308946
884	 0.315243795388843
885	 0.315250396384695
886	 0.315242588603219
887	 0.315245029865684
888	 0.315368094739244
889	 0.315401269966903
890	 0.315382063501546
891	 0.315486186551296
892	 0.315465812086542
893	 0.315568141689854
894	 0.315724111602574
895	 0.315615869559929
896	 0.315677506608125
897	 0.315818229937862
898	 0.315932760032919
899	 0.315986454776967
900	 0.316027016945315
901	 0.316116999532178
902	 0.316183520032294
903	 0.316002917492514
904	 0.316154239173549
905	 0.316330496883607
906	 0.316344447673333
907	 0.316509560521394
908	 0.316555595269192
909	 0.316610066490261
910	 0.316728259423474
911	 0.316636293756334
912	 0.316752065316568
913	 0.316910205883417
914	 0.316974190319862
915	 0.31728695879861
916	 0.317243186737646
917	 0.317143938327562
918	 0.317346456837188
919	 0.317565842396156
920	 0.317644626749288
921	 0.317576893626919
922	 0.31749451657097
923	 0.317732738003124
924	 0.317917708541026
925	 0.318008746520037
926	 0.318090628695072
927	 0.318198218701001
928	 0.318311820631673
929	 0.318334445049753
930	 0.318264583281404
931	 0.318558983534605
932	 0.318795015589851
933	 0.318839520479929
934	 0.318770523939169
935	 0.318869093121902
936	 0.319025464818601
937	 0.319119992229946
938	 0.31908586139216
939	 0.319034224597711
940	 0.319224986564914
941	 0.319531985948427
942	 0.319691965161089
943	 0.319763043037301
944	 0.319622878180785
945	 0.319577212739999
946	 0.319907341433526
947	 0.319940507410049
948	 0.319895059876262
949	 0.319947717850418
950	 0.320190161952962
951	 0.320551408367751
952	 0.320525000686207
953	 0.320386065933233
954	 0.320611403849931
955	 0.320906346266781
956	 0.321096357785445
957	 0.321147668692062
958	 0.321143299386402
959	 0.321277015228462
960	 0.321414960839427
961	 0.321616812102256
962	 0.32189678319793
963	 0.321824697959069
964	 0.322008988667085
965	 0.322336255212357
966	 0.322468197178172
967	 0.322255603359346
968	 0.322465779105716
969	 0.322789443920802
970	 0.322864982421027
971	 0.323256333312562
972	 0.323229641093895
973	 0.32336159595473
974	 0.324042012724508
975	 0.32436824868068
976	 0.324270135905931
977	 0.324099618633117
978	 0.324251068914382
979	 0.324876039470312
980	 0.324881130736817
981	 0.324921027298688
982	 0.325279289157303
983	 0.325104644919288
984	 0.325583340412201
985	 0.325939844960173
986	 0.325780418586252
987	 0.325690141644147
988	 0.326133698618081
989	 0.326525003185769
990	 0.326687396175096
991	 0.32699056915139
992	 0.327236400928046
993	 0.327424442765455
994	 0.327355257948947
995	 0.326929398916665
996	 0.327522828289525
997	 0.328093247547546
998	 0.328388939323203
999	 0.328643199089108
1000	 0.328398691316448
1001	 0.332038365819464
1002	 0.332124288016701
1003	 0.332230549394386
1004	 0.332381859207348
1005	 0.332518919020008
1006	 0.332674697625276
1007	 0.33293356254503
1008	 0.333072384452463
1009	 0.333155077640046
1010	 0.333134804693386
1011	 0.333213228477435
1012	 0.333363467274835
1013	 0.333505547933174
1014	 0.333650740778964
1015	 0.333918729557085
1016	 0.334039489062606
1017	 0.334019342472021
1018	 0.334071947737972
1019	 0.334117476906006
1020	 0.334139600963575
1021	 0.334265390034746
1022	 0.334485814409422
1023	 0.33469717983979
1024	 0.334873780726269
1025	 0.335086842868587
1026	 0.335184329231925
1027	 0.335209195822763
1028	 0.335208241437561
1029	 0.335106454876194
1030	 0.335096387560069
1031	 0.335202030829421
1032	 0.335357031440339
1033	 0.335528646650577
1034	 0.335733964216079
1035	 0.33588218329418
1036	 0.335889702020928
1037	 0.335971263280678
1038	 0.336052186084258
1039	 0.336097216830709
1040	 0.336197812605934
1041	 0.336497087364929
1042	 0.336657721801677
1043	 0.336727397100019
1044	 0.336797252244895
1045	 0.336755291082446
1046	 0.336688699756723
1047	 0.336674256448025
1048	 0.336818624908092
1049	 0.33695185189941
1050	 0.3369767844326
1051	 0.337237547344338
1052	 0.337509260241636
1053	 0.337635057687644
1054	 0.337665556259337
1055	 0.337753410817803
1056	 0.337772003413817
1057	 0.337827525540112
1058	 0.337951422470052
1059	 0.338126119866534
1060	 0.338292052555791
1061	 0.338234329874357
1062	 0.33815427300789
1063	 0.338151950771088
1064	 0.338202547590891
1065	 0.338394979797683
1066	 0.338621335896506
1067	 0.338864916298363
1068	 0.339045942388577
1069	 0.339219091751286
1070	 0.339310702546215
1071	 0.339332891187628
1072	 0.339306296758204
1073	 0.339372455436247
1074	 0.339453600986541
1075	 0.339545869234631
1076	 0.33970640418067
1077	 0.339835929275192
1078	 0.339895810599801
1079	 0.339960884262172
1080	 0.340090485766221
1081	 0.34019050108886
1082	 0.340216734596707
1083	 0.340277737072652
1084	 0.340339311779483
1085	 0.340410671052967
1086	 0.340527210549749
1087	 0.340602276636161
1088	 0.340682390068645
1089	 0.340682572988649
1090	 0.340713753428321
1091	 0.340742034068358
1092	 0.340812563263057
1093	 0.340980146023648
1094	 0.341083884724648
1095	 0.341204583698393
1096	 0.341358405833049
1097	 0.341458874279391
1098	 0.34153777386811
1099	 0.341596692722931
1100	 0.34164510512456
1101	 0.341649291246315
1102	 0.341701700160489
1103	 0.341763724977945
1104	 0.341855021175714
1105	 0.341984377121114
1106	 0.342063808063638
1107	 0.342111400188117
1108	 0.342196839846868
1109	 0.34226205624301
1110	 0.342303963839713
1111	 0.342411768756991
1112	 0.342528223569618
1113	 0.342588586540636
1114	 0.342603995663123
1115	 0.342668883222375
1116	 0.342720810682368
1117	 0.34277349892485
1118	 0.342871761451985
1119	 0.342936440476075
1120	 0.342960289441295
1121	 0.343004314125344
1122	 0.343063661470939
1123	 0.343143618959493
1124	 0.343270391868805
1125	 0.343374901466079
1126	 0.343452243923509
1127	 0.343528902172001
1128	 0.343569197950006
1129	 0.343569128915178
1130	 0.343597622165286
1131	 0.34363293596659
1132	 0.343669294738245
1133	 0.34372902535344
1134	 0.343755514702689
1135	 0.343766116195061
1136	 0.343779805049363
1137	 0.343760685960019
1138	 0.343778230480511
1139	 0.343834687754703
1140	 0.343860182360264
1141	 0.34386803954971
1142	 0.343832804914696
1143	 0.343826628565007
1144	 0.343798414893585
1145	 0.34377280698672
1146	 0.343790899465395
1147	 0.343748193147262
1148	 0.343648343336477
1149	 0.343593268884342
1150	 0.343530738918985
1151	 0.34348930679987
1152	 0.34342365712278
1153	 0.343428537717654
1154	 0.343522117723708
1155	 0.343542550385824
1156	 0.343534736987353
1157	 0.343617755559155
1158	 0.343615463495256
1159	 0.343620587472967
1160	 0.343695486931545
1161	 0.343738417352327
1162	 0.343790459290511
1163	 0.343853948947124
1164	 0.343881730176395
1165	 0.343882328279675
1166	 0.343923784613673
1167	 0.343956809582578
1168	 0.343998328655102
1169	 0.344073467293123
1170	 0.344135799244135
1171	 0.344186063726427
1172	 0.344242736082174
1173	 0.344321903405551
1174	 0.344377779790316
1175	 0.344426783590657
1176	 0.344452090256365
1177	 0.344478497823052
1178	 0.344495093203825
1179	 0.344507813021116
1180	 0.344542916442952
1181	 0.344593546851045
1182	 0.344678393115697
1183	 0.344725666557226
1184	 0.344771630659324
1185	 0.344807762712236
1186	 0.344810333698645
1187	 0.344831887973906
1188	 0.34488800756844
1189	 0.344908250539704
1190	 0.344906676167422
1191	 0.344902590194281
1192	 0.344835791896044
1193	 0.344837897214564
1194	 0.344873936481383
1195	 0.344934205435145
1196	 0.344962493958571
1197	 0.345054351585219
1198	 0.345099490765268
1199	 0.345103386692434
1200	 0.345133338341607
1201	 0.34518310494905
1202	 0.34521024886832
1203	 0.345211185921428
1204	 0.345249201688076
1205	 0.345298783553412
1206	 0.345347752502826
1207	 0.345423705639764
1208	 0.345481744373065
1209	 0.345533898255963
1210	 0.345579446196452
1211	 0.345621249990935
1212	 0.345654239361939
1213	 0.345665864098477
1214	 0.345702964843008
1215	 0.345702071570105
1216	 0.345690629210467
1217	 0.345689671089341
1218	 0.345671739790367
1219	 0.345674602016337
1220	 0.345706771075559
1221	 0.345700624164457
1222	 0.345670141088842
1223	 0.345667656037119
1224	 0.345642030014882
1225	 0.34566485376892
1226	 0.345777995387829
1227	 0.345789347675253
1228	 0.345768536995863
1229	 0.345744703253352
1230	 0.345623628212719
1231	 0.345579196370196
1232	 0.345588779241304
1233	 0.34559038328949
1234	 0.345635990102297
1235	 0.345642660433647
1236	 0.345660160763544
1237	 0.345669557718767
1238	 0.345693034873974
1239	 0.34572788188985
1240	 0.345744952285695
1241	 0.345757088291327
1242	 0.345774852593512
1243	 0.345788369042312
1244	 0.345794644504371
1245	 0.345816019093306
1246	 0.345811642417365
1247	 0.345706174240407
1248	 0.345751819513882
1249	 0.34590336028049
1250	 0.345993319959099
1251	 0.346217745498246
1252	 0.34630118462989
1253	 0.346223966764551
1254	 0.346202128073556
1255	 0.34617160968766
1256	 0.346089144713866
1257	 0.346093195368086
1258	 0.346144965510073
1259	 0.34618156606364
1260	 0.34625211792275
1261	 0.34629167096294
1262	 0.346334068346934
1263	 0.346345334783156
1264	 0.34632875965002
1265	 0.346326081932349
1266	 0.34630456636096
1267	 0.34629394429978
1268	 0.346306845396155
1269	 0.346293597883374
1270	 0.346247384451364
1271	 0.346232391769515
1272	 0.3462208548387
1273	 0.346215425052012
1274	 0.346246941478942
1275	 0.346251613127028
1276	 0.34620523858277
1277	 0.346215864488087
1278	 0.346248057934053
1279	 0.346312360611332
1280	 0.346307741865677
1281	 0.346356841883644
1282	 0.3462524698814
1283	 0.345967049750643
1284	 0.345878350099055
1285	 0.345804045648431
1286	 0.345748576793917
1287	 0.345817506549439
1288	 0.345800009772307
1289	 0.345713080393149
1290	 0.345665238591492
1291	 0.345654733268644
1292	 0.34560765440102
1293	 0.345530625741883
1294	 0.345471695544791
1295	 0.345411516785311
1296	 0.345339228893189
1297	 0.345288827084493
1298	 0.345209359898768
1299	 0.345107334526421
1300	 0.344975073579231
1301	 0.344870986396757
1302	 0.344760664778163
1303	 0.344656958352509
1304	 0.344561942633822
1305	 0.344481925338826
1306	 0.344409853144131
1307	 0.344326873891307
1308	 0.344261984289392
1309	 0.34417983242244
1310	 0.344075794124115
1311	 0.34398338875951
1312	 0.343904891675639
1313	 0.343805658641957
1314	 0.343689519539576
1315	 0.343586083085113
1316	 0.343466929553648
1317	 0.343373029696067
1318	 0.343303342888946
1319	 0.343225843924264
1320	 0.343181091877217
1321	 0.343095134612171
1322	 0.342986141562648
1323	 0.342871907924542
1324	 0.342731019702944
1325	 0.342584603853748
1326	 0.342437983292977
1327	 0.342319168405742
1328	 0.342216774647894
1329	 0.342137820228035
1330	 0.342045109022076
1331	 0.341975721567898
1332	 0.341866277034586
1333	 0.341725526919308
1334	 0.341607232149599
1335	 0.341491380462323
1336	 0.341372530178156
1337	 0.341245952100842
1338	 0.341137982155496
1339	 0.341046141257186
1340	 0.340929911895522
1341	 0.340839243168159
1342	 0.340708048840051
1343	 0.340537816668813
1344	 0.340359183910065
1345	 0.340164203920477
1346	 0.339961052909821
1347	 0.339761263507716
1348	 0.339520806636001
1349	 0.339240935221286
1350	 0.33896261199599
1351	 0.33866973088658
1352	 0.338404195806475
1353	 0.338171327001234
1354	 0.337924688657763
1355	 0.337664599153145
1356	 0.337375266228457
1357	 0.337129678468544
1358	 0.336892054684412
1359	 0.336664922909655
1360	 0.336481752058675
1361	 0.336261583335946
1362	 0.336016956038785
1363	 0.33579162013997
1364	 0.335571059955649
1365	 0.335341858620195
1366	 0.335149576961871
1367	 0.334891410175929
1368	 0.33462085099152
1369	 0.334295515883791
1370	 0.333945512078797
1371	 0.333522163525134
1372	 0.333066719351735
1373	 0.332525798043069
1374	 0.33194754798672
1375	 0.331242816706428
1376	 0.330445944264566
1377	 0.329562073113331
1378	 0.328535828562245
1379	 0.327453206038265
1380	 0.326317036499824
1381	 0.325096466522991
1382	 0.323809633030867
1383	 0.322455914635393
1384	 0.32109742376512
1385	 0.319655440634644
1386	 0.318296893724955
1387	 0.316905677552646
1388	 0.315674401027891
1389	 0.314477073543868
1390	 0.313432170002731
1391	 0.312518581786193
1392	 0.311668141607554
1393	 0.310939813381299
1394	 0.310208201991031
1395	 0.309597722367144
1396	 0.308882828859306
1397	 0.308177977313478
1398	 0.307399295975735
1399	 0.306571895880757
1400	 0.305689534221697
1401	 0.304785304352977
1402	 0.30378003427525
1403	 0.302701580251483
1404	 0.301547228417189
1405	 0.300283595783968
1406	 0.298997226522081
1407	 0.297616562537926
1408	 0.296252772470098
1409	 0.294863761009306
1410	 0.293523546911658
1411	 0.292319245696246
1412	 0.291294309172222
1413	 0.290568222856279
1414	 0.29011729257089
1415	 0.289960503232527
1416	 0.290039422584176
1417	 0.290292598810137
1418	 0.290823392805784
1419	 0.291348285206298
1420	 0.292103486428376
1421	 0.292718149084127
1422	 0.293382617782109
1423	 0.293948708862389
1424	 0.294470839769556
1425	 0.294935797091708
1426	 0.295316654174976
1427	 0.295729274437459
1428	 0.296104630951674
1429	 0.296495060626987
1430	 0.296894503525391
1431	 0.297292083128811
1432	 0.297687377585074
1433	 0.298074355567877
1434	 0.298469923306504
1435	 0.298846376478831
1436	 0.299198919053549
1437	 0.299560431722931
1438	 0.299918659722111
1439	 0.300279790191374
1440	 0.300657728666995
1441	 0.301004100741292
1442	 0.301336534791645
1443	 0.301662444645528
1444	 0.301976212784799
1445	 0.302269562352233
1446	 0.30254885678785
1447	 0.302805738277924
1448	 0.303038205378411
1449	 0.303274810254539
1450	 0.303518444618328
1451	 0.303771857171541
1452	 0.304014692650994
1453	 0.304190772254679
1454	 0.304349487034246
1455	 0.304492510056412
1456	 0.30463626984213
1457	 0.304765320645846
1458	 0.304909028488207
1459	 0.305066922935263
1460	 0.305184278758102
1461	 0.305273695900868
1462	 0.305390859757665
1463	 0.305478944125106
1464	 0.305618505945257
1465	 0.305800196702154
1466	 0.305977595349371
1467	 0.306161514503179
1468	 0.306375788453506
1469	 0.30660094493108
1470	 0.306857730858485
1471	 0.307156093384289
1472	 0.307448916250363
1473	 0.307766600301403
1474	 0.308074397480185
1475	 0.308359577504527
1476	 0.308698179051735
1477	 0.309079019066274
1478	 0.309437652397072
1479	 0.309828125683925
1480	 0.310191980785066
1481	 0.31052478669146
1482	 0.310860255381112
1483	 0.311200749375357
1484	 0.311532097722967
1485	 0.311832911123659
1486	 0.312165710839672
1487	 0.312530006444434
1488	 0.312868759899601
1489	 0.313211316885831
1490	 0.313543249099026
1491	 0.313863126139189
1492	 0.314159474733069
1493	 0.314448735837818
1494	 0.314752427078755
1495	 0.31505896697224
1496	 0.315364702826561
1497	 0.315672510898314
1498	 0.315950842431024
1499	 0.31618210676244
1500	 0.316407784776242
1501	 0.316652735144492
1502	 0.316912145226381
1503	 0.317199793211041
1504	 0.317491397612415
1505	 0.317767145379425
1506	 0.318056784310721
1507	 0.318303998170238
1508	 0.318528427772258
1509	 0.318744090361364
1510	 0.318898079322333
1511	 0.319141987420919
1512	 0.319418509371197
1513	 0.319698314282244
1514	 0.320077591440552
1515	 0.320321339038196
1516	 0.320491971059661
1517	 0.320681942920492
1518	 0.320802654273034
1519	 0.320964072658053
1520	 0.321141034310838
1521	 0.321346731900828
1522	 0.321571680523256
1523	 0.321783043484674
1524	 0.322041625722709
1525	 0.322239146114545
1526	 0.322377699662559
1527	 0.322546277035188
1528	 0.322711078299097
1529	 0.322868027442545
1530	 0.323034193843123
1531	 0.32319022623909
1532	 0.323320150117963
1533	 0.323475189324171
1534	 0.323650211976238
1535	 0.32380142745509
1536	 0.323953647273457
1537	 0.324099996234977
1538	 0.324210728754044
1539	 0.324358386051171
1540	 0.324527978965972
1541	 0.324695309041196
1542	 0.324911872614588
1543	 0.325057982851437
1544	 0.325166219756188
1545	 0.32527645739087
1546	 0.325314884352433
1547	 0.325421654412032
1548	 0.325570322133342
1549	 0.325704703619502
1550	 0.325876111917105
1551	 0.326016364095807
1552	 0.32615175769536
1553	 0.326260330869362
1554	 0.326327880492845
1555	 0.326417135088564
1556	 0.326483065646755
1557	 0.326578782295968
1558	 0.326717182444949
1559	 0.326827487426311
1560	 0.326930179149376
1561	 0.327036417283184
1562	 0.327138255689999
1563	 0.327237106313158
1564	 0.327345773863368
1565	 0.32743966619475
1566	 0.327515815166608
1567	 0.327591066691715
1568	 0.327645494048008
1569	 0.327724169738917
1570	 0.327813306170264
1571	 0.327903824128942
1572	 0.328038084362624
1573	 0.328125262692849
1574	 0.328157981682134
1575	 0.328236426065131
1576	 0.32829119101284
1577	 0.328359238893711
1578	 0.328482124788197
1579	 0.328592955455802
1580	 0.328689821722947
1581	 0.328778989101555
1582	 0.32887495605746
1583	 0.328915018448401
1584	 0.328946782648106
1585	 0.329032847364582
1586	 0.329072862694589
1587	 0.329136607598242
1588	 0.329236306280054
1589	 0.329292573910407
1590	 0.329351744132264
1591	 0.329423211022069
1592	 0.329496814519983
1593	 0.329563706850594
1594	 0.329635022590557
1595	 0.329728763366401
1596	 0.329786660458026
1597	 0.329823432246864
1598	 0.329879493359485
1599	 0.329897281330969
1600	 0.329908167558959
1601	 0.329955654437257
1602	 0.329973641282821
1603	 0.329994480603846
1604	 0.330036363656611
1605	 0.330047536941586
1606	 0.330099583567783
1607	 0.330159439334328
1608	 0.330186150669366
1609	 0.330234394265192
1610	 0.33027425411398
1611	 0.330345016370666
1612	 0.330457394311056
1613	 0.33053631972684
1614	 0.330561826517687
1615	 0.330550458793142
1616	 0.330526374905741
1617	 0.330531530336046
1618	 0.330596450078859
1619	 0.330733177257703
1620	 0.330804266100462
1621	 0.33090033149958
1622	 0.330933705459274
1623	 0.330908401637443
1624	 0.330920736171047
1625	 0.330927746173533
1626	 0.33093901290825
1627	 0.330952388332394
1628	 0.330991899298738
1629	 0.331006625392969
1630	 0.33106256804899
1631	 0.331146569702772
1632	 0.331200804144364
1633	 0.331257281743726
1634	 0.331309940869924
1635	 0.331333560620262
1636	 0.331329517454461
1637	 0.331336945886209
1638	 0.331361930054749
1639	 0.3313865607324
1640	 0.331508693186122
1641	 0.33156148971816
1642	 0.33154298626218
1643	 0.331564917652103
1644	 0.331558474096913
1645	 0.331577132658021
1646	 0.331662715613928
1647	 0.331719524173587
1648	 0.331746942415021
1649	 0.331798290641509
1650	 0.331888035275076
1651	 0.331926827435029
1652	 0.331918262066949
1653	 0.331955925734431
1654	 0.332003123599011
1655	 0.332019989866183
1656	 0.332057895020355
1657	 0.332094165359198
1658	 0.33206628767771
1659	 0.332082280986787
1660	 0.332183836788886
1661	 0.332218769275606
1662	 0.332203435415524
1663	 0.33222122336607
1664	 0.332223250935422
1665	 0.332226613717595
1666	 0.332278563427979
1667	 0.332289736457147
1668	 0.332236252129399
1669	 0.332230399150346
1670	 0.332269985795678
1671	 0.33225344535211
1672	 0.332225677319015
1673	 0.332197161715301
1674	 0.332107900233631
1675	 0.332059369734326
1676	 0.332054216913535
1677	 0.332027974698903
1678	 0.331974746287138
1679	 0.331962952279885
1680	 0.33199086528885
1681	 0.331987229483195
1682	 0.331989745365582
1683	 0.331996843547635
1684	 0.331976047139625
1685	 0.331968787366075
1686	 0.33200005254804
1687	 0.331997019275333
1688	 0.331952864853747
1689	 0.331947602790452
1690	 0.331947116706783
1691	 0.331965538923373
1692	 0.332012581270865
1693	 0.332052880265479
1694	 0.332119541462676
1695	 0.332136791882314
1696	 0.332137569010691
1697	 0.332133575434143
1698	 0.332068522493096
1699	 0.332071342708856
1700	 0.332144540357189
1701	 0.332125552285226
1702	 0.332088019722031
1703	 0.332048298855823
1704	 0.331929524178833
1705	 0.331878000664355
1706	 0.331878420591657
1707	 0.331854247484168
1708	 0.331840142126039
1709	 0.331809128406331
1710	 0.331771824978242
1711	 0.331721046173099
1712	 0.331643580239781
1713	 0.33159820806925
1714	 0.331550904904746
1715	 0.331534540849175
1716	 0.331571799118883
1717	 0.331517611436201
1718	 0.331442761243567
1719	 0.331338097769365
1720	 0.331212807958647
1721	 0.331120796401444
1722	 0.331071084962665
1723	 0.331049865390355
1724	 0.330979654735331
1725	 0.330913599542045
1726	 0.330834554620247
1727	 0.330700690965847
1728	 0.330597457565372
1729	 0.330547361613274
1730	 0.330453294622085
1731	 0.330353523415693
1732	 0.330257761255194
1733	 0.330085387581516
1734	 0.329952523816332
1735	 0.329894080540849
1736	 0.329777492140708
1737	 0.329619234073157
1738	 0.32950869088676
1739	 0.329384167234456
1740	 0.329278351239686
1741	 0.329244455120054
1742	 0.329190838664255
1743	 0.329102531459504
1744	 0.329029269197125
1745	 0.328999878673323
1746	 0.328907532333553
1747	 0.328782120300856
1748	 0.328677152919485
1749	 0.328546986232765
1750	 0.328424539197563
1751	 0.328313637294158
1752	 0.328195364371594
1753	 0.32805597928399
1754	 0.327938351580981
1755	 0.327862078380431
1756	 0.327740799086612
1757	 0.327590257785738
1758	 0.327453138805415
1759	 0.327290352436383
1760	 0.327123697052753
1761	 0.327013536004448
1762	 0.326874747571966
1763	 0.326764587437491
1764	 0.326701846322799
1765	 0.326656556311067
1766	 0.326613539818796
1767	 0.326525721034609
1768	 0.326403369891841
1769	 0.326233638274947
1770	 0.326055262698437
1771	 0.325898347240055
1772	 0.325712192507917
1773	 0.325627140800499
1774	 0.325601995811379
1775	 0.325543566866688
1776	 0.325490334604988
1777	 0.325369370743573
1778	 0.32521441639966
1779	 0.325086764614763
1780	 0.325101335239929
1781	 0.325042085618069
1782	 0.324981556543426
1783	 0.324916008948613
1784	 0.324794718262582
1785	 0.324721593055711
1786	 0.324649600043901
1787	 0.324615388499023
1788	 0.324632503174585
1789	 0.324603504579199
1790	 0.32460447105224
1791	 0.324559630091908
1792	 0.32445390791725
1793	 0.324412702686027
1794	 0.324391242706437
1795	 0.324389218215627
1796	 0.32432443183096
1797	 0.324301375727
1798	 0.324271409361472
1799	 0.324201961122318
1800	 0.324160938817564
1801	 0.324132848657243
1802	 0.324070786125199
1803	 0.324046955711352
1804	 0.324139696570719
1805	 0.324115173015398
1806	 0.324117082264418
1807	 0.324205594243532
1808	 0.324118290023793
1809	 0.324085275949168
1810	 0.324067716228093
1811	 0.323968380694841
1812	 0.324002094350956
1813	 0.324088394792047
1814	 0.324091045098742
1815	 0.32407836429473
1816	 0.324069701084537
1817	 0.324010304435253
1818	 0.324020721958909
1819	 0.323986032459083
1820	 0.323965946906164
1821	 0.323962617925667
1822	 0.323971789063724
1823	 0.324031428008118
1824	 0.324050991074608
1825	 0.324044923937539
1826	 0.324015983862387
1827	 0.324007235854297
1828	 0.324092586444667
1829	 0.324171120128456
1830	 0.324252016244209
1831	 0.323337367777886
1832	 0.323239350950649
1833	 0.323170607334247
1834	 0.323050331994966
1835	 0.322862575949884
1836	 0.322772114615399
1837	 0.322629041582443
1838	 0.322574717978461
1839	 0.322647001159925
1840	 0.322705368411883
1841	 0.322713401835362
1842	 0.322673478778992
1843	 0.322596952852455
1844	 0.322424070618109
1845	 0.322327120083133
1846	 0.322282142306238
1847	 0.322178195266859
1848	 0.322108478525201
1849	 0.321892865170373
1850	 0.321730701547297
1851	 0.321508091982113
1852	 0.321186113354637
1853	 0.321059643593335
1854	 0.320823880879443
1855	 0.320497348294699
1856	 0.320176593920692
1857	 0.319905689079416
1858	 0.319504306611243
1859	 0.318993899791762
1860	 0.318565458427787
1861	 0.318042812315941
1862	 0.317421165184356
1863	 0.31675566517516
1864	 0.315945646119151
1865	 0.315148842522308
1866	 0.314345864730976
1867	 0.313423390868198
1868	 0.312448438276555
1869	 0.3114004797329
1870	 0.310126180361631
1871	 0.308709919693591
1872	 0.307324463297525
1873	 0.30591250842948
1874	 0.304497476431404
1875	 0.303006107051954
1876	 0.301409494542338
1877	 0.299686826246879
1878	 0.297832638241415
1879	 0.295866456920692
1880	 0.293810693349409
1881	 0.291572669187828
1882	 0.289344716903795
1883	 0.286945814891626
1884	 0.284399681062363
1885	 0.281856847042545
1886	 0.278958852332472
1887	 0.275932061532021
1888	 0.272817162878838
1889	 0.269583266680377
1890	 0.266146337899351
1891	 0.262721327700672
1892	 0.259163643998836
1893	 0.255577951697481
1894	 0.251998537594184
1895	 0.248371332401691
1896	 0.244825830930181
1897	 0.241277202862027
1898	 0.237781843128206
1899	 0.2344727260207
1900	 0.231298340924718
1901	 0.228215658341859
1902	 0.225449808502254
1903	 0.222915028158299
1904	 0.22035933643936
1905	 0.218132851365374
1906	 0.216112321313677
1907	 0.214211367946747
1908	 0.212671023162843
1909	 0.211413084912164
1910	 0.2103824721135
1911	 0.209516645988882
1912	 0.208886281967682
1913	 0.208409458242415
1914	 0.208054875660733
1915	 0.207772792208261
1916	 0.207594037798267
1917	 0.207557966756555
1918	 0.207632968577817
1919	 0.207843071489465
1920	 0.208221346981592
1921	 0.208655663984825
1922	 0.209083127429644
1923	 0.209548325678328
1924	 0.210063489329407
1925	 0.210543890351865
1926	 0.211029473538163
1927	 0.211604143070859
1928	 0.212190017612578
1929	 0.212742108202013
1930	 0.21326092746978
1931	 0.213824928174633
1932	 0.214367099843207
1933	 0.214869887776391
1934	 0.215373439387487
1935	 0.21591850305895
1936	 0.216350699881934
1937	 0.21679004131231
1938	 0.217331039578674
1939	 0.217870220432945
1940	 0.21851349313298
1941	 0.219159679490162
1942	 0.219708241637054
1943	 0.220338397025131
1944	 0.22097279853655
1945	 0.221550599214981
1946	 0.222098318148241
1947	 0.22266829943172
1948	 0.223230484109391
1949	 0.223743613173764
1950	 0.224221012087642
1951	 0.224753956763917
1952	 0.225250791934136
1953	 0.225761999201855
1954	 0.226367643007306
1955	 0.226918446498088
1956	 0.22750063228702
1957	 0.228096889709738
1958	 0.228707777856342
1959	 0.229378156720938
1960	 0.229999338630622
1961	 0.230589638898821
1962	 0.231216058423615
1963	 0.231860376480248
1964	 0.232488283495749
1965	 0.233170558320253
1966	 0.233807731080549
1967	 0.234360718914638
1968	 0.234954558485671
1969	 0.235600922847565
1970	 0.236291804489062
1971	 0.23699700440989
1972	 0.237758121959216
1973	 0.238470406928208
1974	 0.239202348428618
1975	 0.239861982135723
1976	 0.240511664395645
1977	 0.241219253774421
1978	 0.241831086335579
1979	 0.242560899073702
1980	 0.243284454314697
1981	 0.243895317828426
1982	 0.24457562749423
1983	 0.2452640113833
1984	 0.245986200417441
1985	 0.246770382402872
1986	 0.247514791732816
1987	 0.248322873984214
1988	 0.24902362968741
1989	 0.249601741630657
1990	 0.250232654676942
1991	 0.250892915306826
1992	 0.251622752858911
1993	 0.252350330688322
1994	 0.253096166881363
1995	 0.253798172082511
1996	 0.254392879441909
1997	 0.255079600969818
1998	 0.255847787255964
1999	 0.256539139251499
2000	 0.257192934979316
2001	 0.257943797391213
2002	 0.258617166957606
2003	 0.259249179198631
2004	 0.260032431095668
2005	 0.260813608322342
2006	 0.261507017875423
2007	 0.262174086493368
2008	 0.262856847958522
2009	 0.263484402502086
2010	 0.264146205915511
2011	 0.264890213613779
2012	 0.265541926641753
2013	 0.266089825401967
2014	 0.266682490624524
2015	 0.267250748417249
2016	 0.267871872055388
2017	 0.268465558183195
2018	 0.269131368896545
2019	 0.269790252313101
2020	 0.270352787220748
2021	 0.270916181825416
2022	 0.271482170298377
2023	 0.272005378321937
2024	 0.272459145113005
2025	 0.27295830371284
2026	 0.273457030912153
2027	 0.273933915271055
2028	 0.274411789652903
2029	 0.274894821867086
2030	 0.275317940706546
2031	 0.275794099952515
2032	 0.276226628009487
2033	 0.276664912293751
2034	 0.277076937718844
2035	 0.277497565199132
2036	 0.277924089543714
2037	 0.27836590253598
2038	 0.278745189455273
2039	 0.279117343102292
2040	 0.279468640329063
2041	 0.279755432070067
2042	 0.280072680351596
2043	 0.280393613048333
2044	 0.280714069609809
2045	 0.281020574637745
2046	 0.281423136458033
2047	 0.281876556940473
2048	 0.282269927191404
2049	 0.282684849343163
2050	 0.283114509739098
2051	 0.283499498969306
2052	 0.283855743310055
2053	 0.284212809746183
2054	 0.284562061579048
2055	 0.284877203271827
2056	 0.285126851362463
2057	 0.285464448563024
2058	 0.28587965394753
2059	 0.286170146092595
2060	 0.286437838834564
2061	 0.286746106186028
2062	 0.286958789649397
2063	 0.287203438226051
2064	 0.287568464164594
2065	 0.287874822259184
2066	 0.288201730165154
2067	 0.288527864216216
2068	 0.288856343867479
2069	 0.28923554056683
2070	 0.289534464023534
2071	 0.289727346898006
2072	 0.290025325858865
2073	 0.290400557273098
2074	 0.290667038904136
2075	 0.290942918197429
2076	 0.291174440777885
2077	 0.291355158054549
2078	 0.291546192110636
2079	 0.291872614883885
2080	 0.292251451985182
2081	 0.292516225800688
2082	 0.292738832627977
2083	 0.292934520670183
2084	 0.293025249641925
2085	 0.29320064973468
2086	 0.293392340930283
2087	 0.293612593897721
2088	 0.293876351330556
2089	 0.294142201738767
2090	 0.294441190477962
2091	 0.294696218340045
2092	 0.294941781482586
2093	 0.295171552978704
2094	 0.295439849053395
2095	 0.295697042831315
2096	 0.295850820443037
2097	 0.295924987726789
2098	 0.296029917399282
2099	 0.295988788618597
2100	 0.296127932819137
2101	 0.296421694455381
2102	 0.296611265609953
2103	 0.296812305342303
2104	 0.296991293157132
2105	 0.297083440352387
2106	 0.297261899112265
2107	 0.297507688362458
2108	 0.297719547838092
2109	 0.297966127060153
2110	 0.29820136217874
2111	 0.298345967617028
2112	 0.298425692471237
2113	 0.298488175913473
2114	 0.298591056431121
2115	 0.298745255909249
2116	 0.298970987609433
2117	 0.299168189570472
2118	 0.299422036037227
2119	 0.299592214726213
2120	 0.299722289042928
2121	 0.299835490939398
2122	 0.299858675905176
2123	 0.299967754199586
2124	 0.300133186981822
2125	 0.300264210588359
2126	 0.300409737608991
2127	 0.300561009304704
2128	 0.300693244601569
2129	 0.300842178968193
2130	 0.30094876293421
2131	 0.300968076152973
2132	 0.300928602485468
2133	 0.300717510981573
2134	 0.300666858342589
2135	 0.300675970486011
2136	 0.300603506674305
2137	 0.300641514609946
2138	 0.300453069133273
2139	 0.300039211729832
2140	 0.299745169665543
2141	 0.299410693976338
2142	 0.299074858095226
2143	 0.298861156678551
2144	 0.298472360901712
2145	 0.297911952486091
2146	 0.297388970767343
2147	 0.296809819798052
2148	 0.296231461204707
2149	 0.29556603585582
2150	 0.294933892192931
2151	 0.294324083410247
2152	 0.293600043667401
2153	 0.293005095850769
2154	 0.292520409424581
2155	 0.292006152174305
2156	 0.291548671695353
2157	 0.291002062950723
2158	 0.290378750314832
2159	 0.289849047552036
2160	 0.289253704473445
2161	 0.288809400379282
2162	 0.28853491619034
2163	 0.288212360985566
2164	 0.287999781176442
2165	 0.287658523238433
2166	 0.287200132916519
2167	 0.286847619544352
2168	 0.286506081079659
2169	 0.286083954501626
2170	 0.285927780551531
2171	 0.285699736137639
2172	 0.285404362489263
2173	 0.285209756617501
2174	 0.284918947874658
2175	 0.284521428751358
2176	 0.284253978400062
2177	 0.284029760190919
2178	 0.283766435117804
2179	 0.283585771803457
2180	 0.283296590557505
2181	 0.282958091322857
2182	 0.282562398914494
2183	 0.282141764540723
2184	 0.28161164370481
2185	 0.280904200959178
2186	 0.280310652737783
2187	 0.279670035000117
2188	 0.279078801788418
2189	 0.278584798702238
2190	 0.278094233763152
2191	 0.277439824018032
2192	 0.276766254309835
2193	 0.275983930531417
2194	 0.275136286430793
2195	 0.274411989764098
2196	 0.273644622470224
2197	 0.272887715627326
2198	 0.272222812629774
2199	 0.271368482055247
2200	 0.27044696338265
2201	 0.269435347705431
2202	 0.268210015591658
2203	 0.267171101277519
2204	 0.266067876521761
2205	 0.265169392937857
2206	 0.264275378209256
2207	 0.263729563831442
2208	 0.26331544711848
2209	 0.263251388033991
2210	 0.263553640144936
2211	 0.264049903428858
2212	 0.264968304628461
2213	 0.265837136180381
2214	 0.266946397668873
2215	 0.267994281165417
2216	 0.269124786974293
2217	 0.270096351421828
2218	 0.271111573805094
2219	 0.272115543330396
2220	 0.272997695519335
2221	 0.273683453088348
2222	 0.274212188189921
2223	 0.274673210700925
2224	 0.275084402060752
2225	 0.275396982167573
2226	 0.275676802937635
2227	 0.275908902442021
2228	 0.276087927441937
2229	 0.276157400326536
2230	 0.276273509608561
2231	 0.276424714435824
2232	 0.276463081793431
2233	 0.27647113301679
2234	 0.276383661120741
2235	 0.276120129833383
2236	 0.275972630234984
2237	 0.275807131529219
2238	 0.27569451175515
2239	 0.275634285535223
2240	 0.275559987752097
2241	 0.275474665241796
2242	 0.275458480411372
2243	 0.27555539680327
2244	 0.275574597395781
2245	 0.275626977505754
2246	 0.275544670252792
2247	 0.275539331613263
2248	 0.275575883216487
2249	 0.275635296911018
2250	 0.275775233016134
2251	 0.275765661583647
2252	 0.275747636622972
2253	 0.275808047021676
2254	 0.275799389120241
2255	 0.275803656600254
2256	 0.275875764314358
2257	 0.275908305212382
2258	 0.275877772981629
2259	 0.27596111704506
2260	 0.276123343901129
2261	 0.276161722800414
2262	 0.276221716579409
2263	 0.276254132872822
2264	 0.27617580379904
2265	 0.276170105647014
2266	 0.27627901673969
2267	 0.276219935634469
2268	 0.276067553155311
2269	 0.275966345271808
2270	 0.275795753837762
2271	 0.275595622158158
2272	 0.27546714713044
2273	 0.275201143941069
2274	 0.274774138192119
2275	 0.274439463904888
2276	 0.274034732627577
2277	 0.273712372263336
2278	 0.273544463525246
2279	 0.273257635259022
2280	 0.27288838855533
2281	 0.272578108326916
2282	 0.272312005548472
2283	 0.271940193989874
2284	 0.271418014913258
2285	 0.2709669698165
2286	 0.270350518060947
2287	 0.269596347674327
2288	 0.268986810835476
2289	 0.268490839836848
2290	 0.268126693555505
2291	 0.267732073074966
2292	 0.267280779943449
2293	 0.266982542565751
2294	 0.266582432111526
2295	 0.266200524800273
2296	 0.266077740365063
2297	 0.265761388989108
2298	 0.265274181611925
2299	 0.264811964407232
2300	 0.264375520624817
2301	 0.264063446615495
2302	 0.263690986861744
2303	 0.263475148078655
2304	 0.263063562742626
2305	 0.262472652223513
2306	 0.261914255237909
2307	 0.261311862115309
2308	 0.260869518251195
2309	 0.260424058526581
2310	 0.25998625435001
2311	 0.259704265361605
2312	 0.259326725934833
2313	 0.258813587342174
2314	 0.258522751550541
2315	 0.258236079737923
2316	 0.258152034966418
2317	 0.258327256794731
2318	 0.258398389340157
2319	 0.258632026084024
2320	 0.258761968291669
2321	 0.258733134224922
2322	 0.258846551803167
2323	 0.259107720016627
2324	 0.259179691852414
2325	 0.25918196147563
2326	 0.259277110662325
2327	 0.259291241830659
2328	 0.259351112635763
2329	 0.259645870955586
2330	 0.259587745696635
2331	 0.259271683132884
2332	 0.259042142262546
2333	 0.25864902010675
2334	 0.258347424682164
2335	 0.258104583233136
2336	 0.257877514272598
2337	 0.257714386932872
2338	 0.257505360385749
2339	 0.257285758639965
2340	 0.257113604269441
2341	 0.257002961027352
2342	 0.256683333997411
2343	 0.25638638224333
2344	 0.256164572438366
2345	 0.255787119949807
2346	 0.255207134361537
2347	 0.25482288126823
2348	 0.254308784164497
2349	 0.253708464595363
2350	 0.253555491679066
2351	 0.253266897629178
2352	 0.252949993673926
2353	 0.252734873126354
2354	 0.252233585878342
2355	 0.251875744506353
2356	 0.251420215296972
2357	 0.250805674699389
2358	 0.250450199552375
2359	 0.249896048041679
2360	 0.249409292713079
2361	 0.249131470200898
2362	 0.248605699661206
2363	 0.248167181922494
2364	 0.247721306247463
2365	 0.247406999369691
2366	 0.247095204144369
2367	 0.246675775609818
2368	 0.246258430403936
2369	 0.245577892510221
2370	 0.245139268122441
2371	 0.244803993297905
2372	 0.244477382752741
2373	 0.244381619712947
2374	 0.244120658746998
2375	 0.243562293391258
2376	 0.243033595790099
2377	 0.242302316907866
2378	 0.241424608681922
2379	 0.240474167015044
2380	 0.239464743774153
2381	 0.238866000968184
2382	 0.238239933606369
2383	 0.237908451624525
2384	 0.237941471755652
2385	 0.237906733853821
2386	 0.237660114144168
2387	 0.237460714664913
2388	 0.237430772809294
2389	 0.236971164512808
2390	 0.236824702494311
2391	 0.236485109887277
2392	 0.235715603702222
2393	 0.235441707449077
2394	 0.235035628910376
2395	 0.234872911791177
2396	 0.235048309300513
2397	 0.235070806693583
2398	 0.235083948587472
2399	 0.234958380159104
2400	 0.234690603047124
2401	 0.234126560862397
2402	 0.233491118654798
2403	 0.232720401781998
2404	 0.232297217107367
2405	 0.232056671412804
2406	 0.231390815051475
2407	 0.231265516387265
2408	 0.231014739323583
2409	 0.230389000761823
2410	 0.229884443996228
2411	 0.2293037438284
2412	 0.228764233983791
2413	 0.228207395644266
2414	 0.228054658056962
2415	 0.228136951896688
2416	 0.22812145968244
2417	 0.228186129345772
2418	 0.227722849268033
2419	 0.227091210560904
2420	 0.226611821954361
2421	 0.225920398631654
2422	 0.225674451715406
2423	 0.224769613004452
2424	 0.223928613548368
2425	 0.222909698275079
2426	 0.222117235436496
2427	 0.22175598526049
2428	 0.221086390449966
2429	 0.220161727271562
2430	 0.219449959352616
2431	 0.218649372301306
2432	 0.218122534732107
2433	 0.218061388035065
2434	 0.217545823450822
2435	 0.216805706383749
2436	 0.216252532196281
2437	 0.215178938869055
2438	 0.215460398779135
2439	 0.215677577454674
2440	 0.215012020226179
2441	 0.215478834413318
2442	 0.215121669169261
2443	 0.213585762776248
2444	 0.212392244910435
2445	 0.211494497874699
2446	 0.211193359361864
2447	 0.211216248901483
2448	 0.210989061055661
2449	 0.209981933498607
2450	 0.208942210887334
2451	 0.20845980335047
2452	 0.20805680457678
2453	 0.208002304473982
2454	 0.207767468812096
2455	 0.206649770821726
2456	 0.205752648035107
2457	 0.205025367325945
2458	 0.203773417165425
2459	 0.202868544359134
2460	 0.202895799996309
2461	 0.203034841112292
2462	 0.202715689902025
2463	 0.202746696651561
2464	 0.202475744166115
2465	 0.201849261616071
2466	 0.201450223415591
2467	 0.201284298580702
2468	 0.20086357556195
2469	 0.200402213375503
2470	 0.200616755369932
2471	 0.200077005435445
2472	 0.199454084431489
2473	 0.198879078404202
2474	 0.197987592633249
2475	 0.197247105205028
2476	 0.196268044299756
2477	 0.196021640424656
2478	 0.195624483378985
2479	 0.195756346337287
2480	 0.196250981279929
2481	 0.195273517977972
2482	 0.194801362599537
2483	 0.194858899366196
2484	 0.19376063870199
2485	 0.193885200472517
2486	 0.19393631872436
2487	 0.192545686397448
2488	 0.191658467003982
2489	 0.190845130388585
2490	 0.18992328060168
2491	 0.190149347140274
2492	 0.190649509570475
2493	 0.190499982730733
2494	 0.189675381430841
2495	 0.188218398468262
2496	 0.18785188114315
2497	 0.187407987151694
2498	 0.187135544360959
2499	 0.188002407712341
2500	 0.187401539373351
