Wavelength	signature0003.asd
350	 0.379022857585304
351	 0.373059635447683
352	 0.370489731673479
353	 0.373909682481576
354	 0.378736838226567
355	 0.375773457879379
356	 0.373140787235221
357	 0.375351052538204
358	 0.381765926712658
359	 0.379765944383858
360	 0.376689313170861
361	 0.377197712433397
362	 0.379073116104528
363	 0.375033133183195
364	 0.3728677140403
365	 0.377385076270225
366	 0.379318866919369
367	 0.37715831682183
368	 0.375403787834408
369	 0.378007804319815
370	 0.37661374806383
371	 0.374060534413347
372	 0.374446885267482
373	 0.380538077812834
374	 0.380653595454007
375	 0.380056071785743
376	 0.38061165741072
377	 0.378496405005371
378	 0.37889154541487
379	 0.379412477211676
380	 0.37832135451364
381	 0.378284277745472
382	 0.378406345217745
383	 0.37963112796581
384	 0.38230556414202
385	 0.38251187402852
386	 0.383632167311736
387	 0.385068273783345
388	 0.384379178835298
389	 0.384645559640786
390	 0.385025896981659
391	 0.38517244233469
392	 0.385625586822805
393	 0.384405794527188
394	 0.383252827940479
395	 0.383571794637233
396	 0.38471416415736
397	 0.385398364182392
398	 0.386892412695415
399	 0.38988546571552
400	 0.389111382237445
401	 0.389473920487139
402	 0.39142366376287
403	 0.392449412880685
404	 0.39236135299193
405	 0.392229862964427
406	 0.392636959157685
407	 0.393357866783138
408	 0.393434386905335
409	 0.393796343288491
410	 0.394985291733057
411	 0.395619989829002
412	 0.3958176129102
413	 0.395961727836791
414	 0.39649182970396
415	 0.397516214956422
416	 0.398165677847441
417	 0.398668164309674
418	 0.40003513664125
419	 0.400569357654177
420	 0.400943325445022
421	 0.401589442382338
422	 0.401907123640654
423	 0.402175500277861
424	 0.402640091349432
425	 0.403420342970583
426	 0.40428891181579
427	 0.404779812470328
428	 0.405291962117116
429	 0.406536008288517
430	 0.407160168801689
431	 0.407708961799224
432	 0.408376122235345
433	 0.408622527614068
434	 0.409460940170295
435	 0.410312683886871
436	 0.410731797562108
437	 0.411791806457306
438	 0.412592545940895
439	 0.413269421785089
440	 0.414276762749333
441	 0.414637742163064
442	 0.415319157786823
443	 0.416353101127451
444	 0.41667381667884
445	 0.417750340932869
446	 0.418689937199922
447	 0.418927952724351
448	 0.419833582555692
449	 0.420779184752242
450	 0.42126270523261
451	 0.4211741955637
452	 0.422242913408795
453	 0.42351140201877
454	 0.424345664886676
455	 0.42463434023067
456	 0.425103893533674
457	 0.425456387942954
458	 0.425645940503632
459	 0.426606576127634
460	 0.427265149599815
461	 0.427677491814321
462	 0.42825854043254
463	 0.42912900758642
464	 0.429605471543044
465	 0.42975965108653
466	 0.43026685466684
467	 0.430594741667861
468	 0.430931825809017
469	 0.431468651643635
470	 0.43222591413677
471	 0.432690525548897
472	 0.43296178996809
473	 0.433331483085804
474	 0.43393933320111
475	 0.43418559304084
476	 0.434424094380994
477	 0.435582940722237
478	 0.43601569841026
479	 0.436067029208709
480	 0.43625599080437
481	 0.436861073271375
482	 0.437493182176361
483	 0.438067414743368
484	 0.438532960121375
485	 0.438452661837078
486	 0.43904694142283
487	 0.439984061496967
488	 0.439904201051622
489	 0.440347304948774
490	 0.44095857291145
491	 0.44140666282811
492	 0.441903316757154
493	 0.442440170877993
494	 0.442877492693632
495	 0.443158722640273
496	 0.443787629565059
497	 0.444242989435991
498	 0.444491301155028
499	 0.444898081733198
500	 0.445551184813579
501	 0.446116412958759
502	 0.446477287713069
503	 0.447044617049197
504	 0.447572278250705
505	 0.448072981965497
506	 0.448591691347533
507	 0.448945157131701
508	 0.449221511860333
509	 0.449529200582
510	 0.449967828964286
511	 0.450448138528831
512	 0.450817415364659
513	 0.451092337013765
514	 0.451666926829217
515	 0.45217603608106
516	 0.45243923260579
517	 0.452499432246945
518	 0.453146834905995
519	 0.45369887791093
520	 0.45400962086192
521	 0.45448341648317
522	 0.454827545431831
523	 0.455150881634104
524	 0.455545994195594
525	 0.455917003532363
526	 0.456176590094811
527	 0.456411758509371
528	 0.456764641698434
529	 0.457235777244418
530	 0.457592928085661
531	 0.457818077466183
532	 0.458134862029996
533	 0.458680640459717
534	 0.459107707947416
535	 0.459246989723804
536	 0.459695049116491
537	 0.459987777969087
538	 0.460192954714388
539	 0.460589958255263
540	 0.461028948855783
541	 0.461401887605902
542	 0.461699443144761
543	 0.462026839758448
544	 0.462311235259754
545	 0.462683949969187
546	 0.463187499091604
547	 0.463436588419389
548	 0.463678010849414
549	 0.464017465560932
550	 0.464454557444805
551	 0.464878833062058
552	 0.465286352958846
553	 0.465653638322037
554	 0.465895722116831
555	 0.466247175375911
556	 0.466746762054294
557	 0.467327380661582
558	 0.467777378315198
559	 0.468267928872357
560	 0.468844966843194
561	 0.469450398846851
562	 0.470110571575144
563	 0.470678483940754
564	 0.471125257030427
565	 0.471700801178712
566	 0.472211788183449
567	 0.472800941128381
568	 0.473584313872852
569	 0.473940660004731
570	 0.474240251332309
571	 0.474681358524162
572	 0.475236304900459
573	 0.475808322248173
574	 0.476399546367077
575	 0.477080699186675
576	 0.478079115286984
577	 0.478821925852627
578	 0.479418703313982
579	 0.480223200485521
580	 0.480981440054804
581	 0.48164997860747
582	 0.48224864655195
583	 0.482849315685247
584	 0.483521773715037
585	 0.484204709901518
586	 0.4847897716161
587	 0.485124820848543
588	 0.485467337475915
589	 0.485765125949202
590	 0.485833643445446
591	 0.485929108526352
592	 0.486108854358175
593	 0.486329472057068
594	 0.486433888717794
595	 0.486598467520726
596	 0.48673748249586
597	 0.486799428943174
598	 0.487170622089002
599	 0.487437834291762
600	 0.48754348089161
601	 0.487692929573931
602	 0.487835079690943
603	 0.488025975046098
604	 0.488197394232593
605	 0.488008333058395
606	 0.487948646175095
607	 0.488034102204782
608	 0.488096603766257
609	 0.487921661284623
610	 0.487866969957909
611	 0.488042764360172
612	 0.488293908000428
613	 0.48829528579541
614	 0.488317448797748
615	 0.488533511337187
616	 0.488612902299851
617	 0.488770012259127
618	 0.488965046855242
619	 0.489080075658634
620	 0.48915448493313
621	 0.489331583136627
622	 0.489617163956573
623	 0.489861781627695
624	 0.490132389261398
625	 0.490332046219007
626	 0.490453112586998
627	 0.490838614863322
628	 0.491204358539692
629	 0.491419536715873
630	 0.491496424836474
631	 0.491838285141935
632	 0.492254485442161
633	 0.492634241729566
634	 0.493056656447114
635	 0.493496231991133
636	 0.493980552644272
637	 0.494500135052163
638	 0.494858505191612
639	 0.495373716399196
640	 0.495929065226134
641	 0.496198570659162
642	 0.496693497592801
643	 0.497247690631096
644	 0.497719454895163
645	 0.498145629353692
646	 0.498496108738366
647	 0.498829635644345
648	 0.499213098954145
649	 0.499635219752277
650	 0.500074637392456
651	 0.500465722841229
652	 0.500732744227937
653	 0.501041986675241
654	 0.501437932484496
655	 0.501868571567131
656	 0.502138193853972
657	 0.502384868449647
658	 0.502734951648002
659	 0.503232237219299
660	 0.503563199507623
661	 0.503917485430585
662	 0.504384438075255
663	 0.504940848649736
664	 0.505516116857597
665	 0.506103771954966
666	 0.50666545436113
667	 0.507035624423964
668	 0.507635549970388
669	 0.508331829530204
670	 0.508851632444573
671	 0.509401671023602
672	 0.509952705648274
673	 0.510503550850322
674	 0.5110873715265
675	 0.51165623903316
676	 0.51221701148304
677	 0.51276169886679
678	 0.513212514756007
679	 0.513668051341593
680	 0.514172295130015
681	 0.514730434841388
682	 0.515276419590564
683	 0.515800467099648
684	 0.516300399542464
685	 0.516785312714062
686	 0.517475846265295
687	 0.518188938084013
688	 0.518794568958579
689	 0.51948650684339
690	 0.520312193872159
691	 0.521141526741092
692	 0.521830495510951
693	 0.52266638873472
694	 0.523540999768576
695	 0.524355867113988
696	 0.525064838102611
697	 0.525898074125535
698	 0.526770965883435
699	 0.527584140278769
700	 0.528376093649931
701	 0.529127303958958
702	 0.529875381219398
703	 0.53066037982981
704	 0.53139431551612
705	 0.532054550985317
706	 0.532691760086229
707	 0.533413997640295
708	 0.533993839046886
709	 0.534546559377698
710	 0.535163649984548
711	 0.53570330861919
712	 0.536289016557249
713	 0.536873837822646
714	 0.537369689196516
715	 0.537867967884544
716	 0.538395671210994
717	 0.538915925767435
718	 0.53934106414123
719	 0.539713584309691
720	 0.540116594252932
721	 0.540584946768885
722	 0.541038166922425
723	 0.541438199195291
724	 0.5417978443586
725	 0.542159874778611
726	 0.54259446803224
727	 0.542977714278078
728	 0.543270149980014
729	 0.543521305075571
730	 0.543796723233757
731	 0.544097502897698
732	 0.544398816073466
733	 0.544648502528635
734	 0.544961087364288
735	 0.545252206728519
736	 0.545439431416057
737	 0.545743669883984
738	 0.54603036398706
739	 0.546269289815094
740	 0.546508460024918
741	 0.546673583334594
742	 0.546888444373863
743	 0.547180547829318
744	 0.547389071754375
745	 0.547566908973923
746	 0.547735233264983
747	 0.547913160646646
748	 0.548128219687322
749	 0.548388841305965
750	 0.548629211913023
751	 0.548764252834989
752	 0.548893325360104
753	 0.549058758821825
754	 0.549256737592969
755	 0.549436134811219
756	 0.549587366938972
757	 0.549779580340954
758	 0.550022236807869
759	 0.550135419827258
760	 0.550133796383297
761	 0.550152132932128
762	 0.550326106695887
763	 0.550497223128162
764	 0.550635638173607
765	 0.550726915868948
766	 0.550775951717382
767	 0.550908728090018
768	 0.551027798471451
769	 0.551094229065947
770	 0.551235035737587
771	 0.551407664182159
772	 0.551482626677405
773	 0.551408299439497
774	 0.551482371263481
775	 0.551642602804459
776	 0.551794073696992
777	 0.551851086329186
778	 0.551941761264782
779	 0.552015284996444
780	 0.552065104094363
781	 0.552150866630976
782	 0.552262466240954
783	 0.552344058026899
784	 0.552376736057008
785	 0.55244458948196
786	 0.552498563214367
787	 0.552571047256858
788	 0.552692788278895
789	 0.55277557544671
790	 0.552816200301874
791	 0.552874305431711
792	 0.553014595075021
793	 0.55297872309692
794	 0.552969840687269
795	 0.553064716983408
796	 0.55311478249007
797	 0.553132231655331
798	 0.553177873192473
799	 0.553268352708926
800	 0.553284497170129
801	 0.553283761161709
802	 0.55328924015367
803	 0.553311908514544
804	 0.553355488458751
805	 0.553414714667099
806	 0.553480066244358
807	 0.553534048585792
808	 0.553516076864368
809	 0.553510413289151
810	 0.553524775003319
811	 0.553465211126739
812	 0.553535136754184
813	 0.553607544284938
814	 0.553593071341757
815	 0.553629433378796
816	 0.553673614113058
817	 0.553721366858142
818	 0.55376046643929
819	 0.553706743091056
820	 0.553697351259138
821	 0.553725958086183
822	 0.553725951521681
823	 0.553839101612907
824	 0.553864382856614
825	 0.553828976820155
826	 0.553967767895596
827	 0.553921033696501
828	 0.553863554639045
829	 0.553925818408675
830	 0.554030353669883
831	 0.554032153407206
832	 0.553980146060784
833	 0.553966541188474
834	 0.554053361255284
835	 0.554098042958047
836	 0.554071955241537
837	 0.554007912775607
838	 0.553972294700735
839	 0.553986140590603
840	 0.554022807512999
841	 0.554022973647852
842	 0.553910792876295
843	 0.553934876063017
844	 0.554031918182852
845	 0.553851467985239
846	 0.553867169792314
847	 0.553852207733035
848	 0.553714873875183
849	 0.553734161917717
850	 0.553818475805611
851	 0.553816944071898
852	 0.553702051583089
853	 0.553778178694229
854	 0.553850750892845
855	 0.553827951631705
856	 0.553694690510023
857	 0.55355755476175
858	 0.55359865408448
859	 0.553682671432211
860	 0.553586964988867
861	 0.553558952191176
862	 0.553628342087028
863	 0.553753422042009
864	 0.553834244518587
865	 0.553718144355673
866	 0.553503809120469
867	 0.553361165101001
868	 0.553463511997143
869	 0.553534913997995
870	 0.553561748559076
871	 0.553556994197933
872	 0.553506723856689
873	 0.553533722257386
874	 0.553562212786312
875	 0.553520110620437
876	 0.553442952983692
877	 0.553439347859993
878	 0.55343962599087
879	 0.553394538962488
880	 0.553508267876574
881	 0.553472743277263
882	 0.553377748744104
883	 0.553401263964163
884	 0.55340265208628
885	 0.553274568491027
886	 0.553134244657094
887	 0.553169582749574
888	 0.553267709273766
889	 0.553323564247769
890	 0.553296158624037
891	 0.553207066538395
892	 0.553130392294125
893	 0.553015915553114
894	 0.552951304706378
895	 0.553106363350919
896	 0.553201026538772
897	 0.553140204767607
898	 0.553048464195231
899	 0.553210105202085
900	 0.553149048046836
901	 0.552995184474564
902	 0.552908966483586
903	 0.552934932375811
904	 0.552943831502028
905	 0.552895661092032
906	 0.5527938606499
907	 0.552678529284997
908	 0.552637787833623
909	 0.552587645764437
910	 0.552507838018553
911	 0.552589289114999
912	 0.552599098723881
913	 0.552559075926717
914	 0.552543101917669
915	 0.552572002505008
916	 0.552599295584427
917	 0.552577910601785
918	 0.552495268658328
919	 0.552409838644791
920	 0.552507447249608
921	 0.552601143158754
922	 0.552529097520909
923	 0.552653625616554
924	 0.552619174125723
925	 0.552493853305751
926	 0.552458365423793
927	 0.552503955819392
928	 0.552347458538583
929	 0.552233489220982
930	 0.552428547165818
931	 0.552446048893642
932	 0.552220578422211
933	 0.551976761316573
934	 0.551930763983599
935	 0.551705395271802
936	 0.551566191565449
937	 0.551435417465617
938	 0.551159153530376
939	 0.55097403815329
940	 0.550836292863709
941	 0.550669266006878
942	 0.55041489595369
943	 0.550162756150013
944	 0.549713744088566
945	 0.549499080221
946	 0.54986059539145
947	 0.549507326598386
948	 0.549211004190785
949	 0.549212133012664
950	 0.549350332867934
951	 0.549097911298643
952	 0.549096140580106
953	 0.549272036635701
954	 0.549274572207372
955	 0.549134497637981
956	 0.549149720987056
957	 0.549019912184689
958	 0.548477476854685
959	 0.548380648980926
960	 0.548248261126777
961	 0.548054115370676
962	 0.547889887770268
963	 0.547520752467537
964	 0.547595297288788
965	 0.54781968531851
966	 0.547798718213816
967	 0.548018768457473
968	 0.548102328839837
969	 0.548293363631809
970	 0.548827059118015
971	 0.549373592708674
972	 0.549742604211324
973	 0.550165558779377
974	 0.550790737228088
975	 0.551270273858898
976	 0.551784379789843
977	 0.552012526894847
978	 0.551941264138882
979	 0.552306719765408
980	 0.552303654257937
981	 0.55228179758692
982	 0.552540635446893
983	 0.552863169344334
984	 0.552877687940666
985	 0.552903114688972
986	 0.553042315175457
987	 0.553003410959918
988	 0.553310532710844
989	 0.553420187562671
990	 0.553443217486694
991	 0.554058620844612
992	 0.553810335429389
993	 0.553772518551498
994	 0.553979577053629
995	 0.553660961392246
996	 0.553660882468211
997	 0.554176348701713
998	 0.554612473039633
999	 0.554343930781104
1000	 0.554637302832158
1001	 0.551688507499718
1002	 0.551960129945184
1003	 0.552026995115215
1004	 0.551858246046951
1005	 0.551793025934463
1006	 0.551808296954069
1007	 0.551911295767998
1008	 0.55215754337275
1009	 0.552190699119322
1010	 0.552131352200503
1011	 0.55200426912881
1012	 0.55190739875964
1013	 0.551725631992574
1014	 0.551775345174741
1015	 0.551936032415489
1016	 0.551939059913427
1017	 0.551834499171542
1018	 0.551683382799349
1019	 0.551556413111859
1020	 0.551515122392384
1021	 0.551568052936285
1022	 0.55163192140144
1023	 0.551608197089767
1024	 0.551584131397208
1025	 0.551507418500516
1026	 0.551462667920535
1027	 0.551430362551915
1028	 0.551448273389008
1029	 0.551396945433242
1030	 0.551275490105582
1031	 0.551180315490303
1032	 0.551071764100845
1033	 0.551078192664332
1034	 0.55112675629849
1035	 0.551131011498734
1036	 0.551224390281801
1037	 0.551228931225796
1038	 0.551213046571418
1039	 0.551171697568385
1040	 0.551243548196965
1041	 0.551184627948752
1042	 0.551053602282893
1043	 0.551081345982544
1044	 0.551197607776366
1045	 0.551159870556565
1046	 0.551133712518118
1047	 0.551189266896455
1048	 0.551061640136119
1049	 0.551015967371721
1050	 0.551059484990251
1051	 0.551006467483901
1052	 0.55097278935376
1053	 0.550965563514999
1054	 0.550967189516577
1055	 0.551000034363455
1056	 0.551090675661824
1057	 0.551217655713441
1058	 0.551294146140735
1059	 0.551462069935056
1060	 0.551629420765257
1061	 0.551653449071119
1062	 0.551736153901487
1063	 0.551782654394772
1064	 0.551704844610469
1065	 0.551689749320217
1066	 0.551822881616998
1067	 0.551963828205096
1068	 0.552059730324668
1069	 0.55225122034068
1070	 0.552333665593747
1071	 0.552300673155031
1072	 0.552300645057924
1073	 0.552333820451016
1074	 0.552346647055973
1075	 0.552336593042201
1076	 0.552253860396832
1077	 0.552155695986498
1078	 0.552148943886918
1079	 0.552215725290862
1080	 0.552229407495199
1081	 0.552195804883621
1082	 0.552158215102177
1083	 0.55208719541531
1084	 0.551913417224739
1085	 0.551849940910656
1086	 0.551805757954207
1087	 0.551782479846317
1088	 0.551833247375821
1089	 0.551842781483549
1090	 0.551767445844854
1091	 0.551687081991143
1092	 0.551552286116186
1093	 0.551396996441479
1094	 0.551265108430105
1095	 0.551193708135771
1096	 0.551099018358027
1097	 0.551013292180232
1098	 0.550944811879921
1099	 0.550903059392146
1100	 0.550834159672154
1101	 0.550768016428675
1102	 0.550686737409195
1103	 0.550594220859852
1104	 0.550518440439805
1105	 0.550383849475561
1106	 0.550222631899073
1107	 0.55002386190081
1108	 0.54981257939051
1109	 0.549637977794503
1110	 0.549569308920294
1111	 0.549532177758317
1112	 0.549343547978011
1113	 0.549187863821431
1114	 0.548982385347864
1115	 0.548841227797221
1116	 0.548749564703612
1117	 0.548643692659737
1118	 0.548562118441336
1119	 0.54843613622539
1120	 0.54829388190475
1121	 0.548093329759359
1122	 0.547885675633906
1123	 0.54777191391277
1124	 0.547655783489255
1125	 0.547529490625074
1126	 0.547541454578927
1127	 0.547486501753407
1128	 0.547333064038627
1129	 0.547247477818299
1130	 0.547130031464113
1131	 0.546957506095651
1132	 0.546810167913005
1133	 0.546670640655493
1134	 0.546545376997033
1135	 0.546445773109241
1136	 0.546271985591389
1137	 0.546092387385883
1138	 0.545914488786973
1139	 0.545708637592061
1140	 0.545433033315514
1141	 0.545181070161223
1142	 0.544969956035053
1143	 0.544705019873803
1144	 0.544405938449288
1145	 0.544217448015455
1146	 0.544165637688918
1147	 0.543936186929693
1148	 0.543753496957958
1149	 0.543423355744944
1150	 0.542807763482152
1151	 0.542431489165194
1152	 0.542078822400054
1153	 0.541783073239321
1154	 0.541687902139754
1155	 0.541483542434843
1156	 0.541224599142105
1157	 0.540976895379544
1158	 0.540761313459287
1159	 0.540542194720619
1160	 0.5404170802587
1161	 0.540335453355923
1162	 0.540290268021783
1163	 0.540321815197042
1164	 0.540274492806059
1165	 0.540221545947703
1166	 0.54019961173305
1167	 0.540123472581805
1168	 0.540122390096004
1169	 0.54021134512852
1170	 0.540259562197991
1171	 0.540330457425681
1172	 0.54037121209441
1173	 0.540389593657005
1174	 0.540412870655493
1175	 0.540463250335283
1176	 0.540420662008571
1177	 0.540392111892903
1178	 0.540358183555439
1179	 0.540251844161681
1180	 0.540213244430814
1181	 0.540153351225112
1182	 0.540090501652659
1183	 0.540043445919928
1184	 0.540007773543224
1185	 0.539963691935263
1186	 0.53995733700364
1187	 0.539885464844042
1188	 0.539789301607897
1189	 0.539662590969827
1190	 0.53947372532014
1191	 0.539313273482578
1192	 0.539111232842951
1193	 0.538964873934091
1194	 0.53886843558897
1195	 0.538752502067751
1196	 0.538622364350196
1197	 0.538540154546071
1198	 0.538440323131861
1199	 0.538323271841664
1200	 0.538211362386799
1201	 0.538124916128117
1202	 0.538009581105691
1203	 0.537861972754189
1204	 0.53773529249321
1205	 0.537577945284981
1206	 0.537494834554236
1207	 0.537509206972581
1208	 0.537417048774788
1209	 0.537334139464347
1210	 0.537210071473895
1211	 0.536934809123433
1212	 0.536762140265562
1213	 0.536639987199343
1214	 0.536548421932278
1215	 0.536413832965283
1216	 0.536274470689461
1217	 0.536076888074835
1218	 0.535797768257661
1219	 0.535572451393417
1220	 0.53535656550414
1221	 0.53510884849057
1222	 0.534888020246825
1223	 0.53458282914968
1224	 0.534179439014879
1225	 0.533853213811017
1226	 0.533520805251531
1227	 0.533186670271029
1228	 0.532901573602555
1229	 0.532582141843503
1230	 0.532193323332973
1231	 0.531863167129043
1232	 0.531540592201256
1233	 0.531261119396508
1234	 0.531020259412918
1235	 0.530805824044054
1236	 0.530609885045879
1237	 0.530430782614557
1238	 0.530311948225993
1239	 0.530233612734074
1240	 0.530163721982048
1241	 0.530142219061421
1242	 0.530127854235905
1243	 0.530118627882006
1244	 0.530130085631196
1245	 0.530207021868967
1246	 0.530223939831525
1247	 0.530206822450715
1248	 0.530214751534076
1249	 0.530238060799632
1250	 0.530217628007268
1251	 0.530178323739202
1252	 0.530150902889836
1253	 0.530079620222503
1254	 0.530031390681989
1255	 0.529997981670387
1256	 0.529998146547138
1257	 0.529983080447684
1258	 0.529952340609569
1259	 0.529963082483405
1260	 0.53001151926933
1261	 0.53002245254773
1262	 0.530060090097218
1263	 0.530036971687589
1264	 0.530009705668914
1265	 0.529890364125598
1266	 0.529681306770017
1267	 0.529505571028654
1268	 0.529270755464641
1269	 0.529053851654001
1270	 0.528877054741981
1271	 0.528658453495659
1272	 0.52840372813985
1273	 0.528144974148066
1274	 0.527876215525025
1275	 0.527595613825186
1276	 0.527337324182687
1277	 0.527009138201604
1278	 0.526641281391876
1279	 0.52625328014793
1280	 0.525802190306452
1281	 0.525288532482187
1282	 0.524737625652705
1283	 0.524119230058014
1284	 0.52352405508346
1285	 0.52290740592768
1286	 0.522251616286973
1287	 0.521581284531343
1288	 0.52090145629592
1289	 0.520106520340903
1290	 0.519441833033322
1291	 0.518845911623433
1292	 0.518249889427131
1293	 0.517740710705657
1294	 0.517180253234965
1295	 0.516600389974115
1296	 0.516018331480634
1297	 0.515424518008335
1298	 0.514825429442777
1299	 0.514232750605179
1300	 0.513618718476435
1301	 0.512985318210386
1302	 0.512332087193149
1303	 0.511681181112971
1304	 0.510992069957969
1305	 0.510370782841987
1306	 0.509735102078366
1307	 0.509213622175357
1308	 0.508786127774677
1309	 0.508344477376328
1310	 0.507995025665864
1311	 0.507589155061193
1312	 0.507166080268513
1313	 0.506741046171411
1314	 0.506333113756476
1315	 0.505882748642223
1316	 0.505423647055154
1317	 0.504927547657059
1318	 0.50440604159434
1319	 0.503851027316199
1320	 0.50321994743229
1321	 0.502643570430241
1322	 0.502054343659164
1323	 0.501492832923725
1324	 0.500983606152817
1325	 0.50048317785051
1326	 0.4999325578766
1327	 0.499395474275576
1328	 0.498842461218681
1329	 0.498238688221621
1330	 0.497723171186343
1331	 0.497263499287287
1332	 0.496755084883694
1333	 0.496282119790504
1334	 0.495762083792192
1335	 0.495197073546149
1336	 0.494633965161895
1337	 0.494081312492594
1338	 0.493491141194343
1339	 0.492911682926529
1340	 0.492236595173696
1341	 0.491565167094442
1342	 0.490749084932908
1343	 0.489903582359484
1344	 0.488848275952182
1345	 0.487665525855826
1346	 0.486319558074464
1347	 0.484791240860762
1348	 0.483137030666646
1349	 0.481298728534068
1350	 0.479374882955705
1351	 0.477430369811269
1352	 0.475458561664648
1353	 0.473489601480555
1354	 0.47161980808614
1355	 0.469873997033238
1356	 0.468133580781131
1357	 0.466611363732802
1358	 0.465307381312027
1359	 0.463996221332261
1360	 0.462826816335154
1361	 0.461599301148379
1362	 0.460446325402855
1363	 0.459187089593371
1364	 0.457979536094253
1365	 0.4565755420704
1366	 0.455136150837044
1367	 0.453488188827079
1368	 0.451772237306573
1369	 0.449753826103338
1370	 0.447593673730202
1371	 0.445127654913888
1372	 0.442459509387828
1373	 0.439442438406253
1374	 0.436158572214519
1375	 0.43256017549152
1376	 0.428613112344866
1377	 0.424390246392161
1378	 0.419862486999858
1379	 0.415106840475355
1380	 0.41023171701748
1381	 0.405207216133233
1382	 0.400148610865565
1383	 0.39523048559097
1384	 0.390563686433812
1385	 0.385897875067555
1386	 0.381785490440882
1387	 0.377896336127693
1388	 0.374616679550699
1389	 0.371680383042451
1390	 0.369353605731513
1391	 0.367539349468129
1392	 0.366196040282849
1393	 0.365405678817465
1394	 0.364936468896211
1395	 0.365077573227302
1396	 0.365180450869102
1397	 0.36570537869291
1398	 0.36604250272699
1399	 0.366549971787211
1400	 0.366799494561169
1401	 0.367190835716954
1402	 0.367004258210239
1403	 0.366746535006042
1404	 0.365733106123255
1405	 0.364283444555852
1406	 0.362144291562568
1407	 0.359236628299677
1408	 0.355907913696063
1409	 0.351979280030843
1410	 0.348149396003859
1411	 0.344606538514182
1412	 0.341825611566558
1413	 0.340389060881073
1414	 0.340237268219487
1415	 0.342065331820851
1416	 0.345154163957716
1417	 0.349112745458414
1418	 0.354878725483731
1419	 0.36009819803118
1420	 0.366331104698455
1421	 0.371462949536885
1422	 0.37665163031397
1423	 0.380958473732001
1424	 0.384605994156717
1425	 0.387889482631388
1426	 0.390535235569546
1427	 0.39308263990364
1428	 0.395170970906306
1429	 0.397231037443449
1430	 0.399098741163591
1431	 0.400854759365145
1432	 0.402425399713047
1433	 0.40391781656503
1434	 0.405269685206185
1435	 0.406570513033316
1436	 0.407739962143745
1437	 0.408907177083883
1438	 0.410034169043387
1439	 0.411098135498293
1440	 0.412113373080588
1441	 0.413099478845856
1442	 0.414038724289799
1443	 0.414921089802097
1444	 0.415775935604502
1445	 0.416566404360484
1446	 0.417263221719862
1447	 0.417935439737915
1448	 0.418583465577851
1449	 0.419204187323238
1450	 0.419801428924236
1451	 0.420373279049221
1452	 0.420912171568674
1453	 0.421386496459949
1454	 0.421874869500404
1455	 0.422337143780689
1456	 0.422751867899962
1457	 0.423153543055786
1458	 0.423482704420352
1459	 0.423720816903761
1460	 0.424014036193182
1461	 0.424282651640179
1462	 0.424565778938486
1463	 0.424852121981658
1464	 0.425174097200772
1465	 0.425472018195211
1466	 0.425846104343131
1467	 0.426300012765605
1468	 0.426742767554351
1469	 0.427192754004195
1470	 0.427706160148535
1471	 0.428241466749314
1472	 0.428824090219718
1473	 0.42948795906018
1474	 0.430135913117966
1475	 0.430795549287325
1476	 0.431483935114051
1477	 0.432214339638202
1478	 0.432913967245475
1479	 0.433631256320555
1480	 0.434330952497718
1481	 0.435022786271363
1482	 0.435680205297466
1483	 0.436311684150791
1484	 0.436948208856524
1485	 0.437564954814796
1486	 0.438165535593441
1487	 0.438764156579487
1488	 0.439355168201739
1489	 0.439930885640893
1490	 0.440479715672259
1491	 0.44101483610952
1492	 0.441546537935857
1493	 0.442061023183872
1494	 0.442552239558445
1495	 0.443027708721477
1496	 0.443520966459695
1497	 0.444000297133881
1498	 0.44447249757362
1499	 0.444978473255612
1500	 0.445477802436489
1501	 0.445925290631225
1502	 0.446359900224752
1503	 0.446786645914128
1504	 0.447213442433896
1505	 0.447691479209526
1506	 0.448159305315169
1507	 0.448575044662922
1508	 0.448962947754667
1509	 0.449355662125551
1510	 0.449701261291418
1511	 0.450083567345558
1512	 0.450498236165821
1513	 0.450883310392469
1514	 0.451257337824415
1515	 0.451623911299303
1516	 0.451981003032811
1517	 0.452342512901768
1518	 0.452704994188837
1519	 0.45304787049284
1520	 0.4533916676434
1521	 0.453707643289286
1522	 0.453999517953349
1523	 0.454273584190734
1524	 0.454531050256101
1525	 0.454778734400838
1526	 0.454998010742874
1527	 0.455229219147089
1528	 0.455448689677135
1529	 0.45567677419754
1530	 0.455910070720852
1531	 0.456146327991623
1532	 0.45640014775211
1533	 0.456631430887861
1534	 0.456854973714028
1535	 0.45706778813366
1536	 0.457259405988962
1537	 0.457457667803703
1538	 0.457652662508144
1539	 0.457848784722032
1540	 0.458041190476562
1541	 0.458239848265085
1542	 0.458427748062805
1543	 0.458644884707808
1544	 0.458915270247406
1545	 0.459119907069055
1546	 0.459322927289427
1547	 0.459489894554839
1548	 0.459571003286372
1549	 0.459700320526878
1550	 0.459857636112652
1551	 0.459986462732709
1552	 0.460136412773787
1553	 0.460234020961928
1554	 0.46025630625517
1555	 0.460321445061528
1556	 0.460370070920042
1557	 0.460447320001409
1558	 0.460563540204646
1559	 0.460674996023404
1560	 0.460796835410606
1561	 0.460912544975234
1562	 0.461044150453618
1563	 0.461155633706721
1564	 0.461261846255272
1565	 0.461350459408226
1566	 0.461405324200084
1567	 0.461475815383009
1568	 0.461530770752932
1569	 0.461604077204524
1570	 0.461700507546154
1571	 0.461794473675096
1572	 0.461917686503393
1573	 0.462006267299384
1574	 0.462089777674654
1575	 0.462130382912902
1576	 0.462169300471732
1577	 0.462216579879423
1578	 0.462288292641448
1579	 0.462382881043727
1580	 0.462478864640405
1581	 0.462552487176999
1582	 0.462594239672259
1583	 0.46264601181582
1584	 0.462722021706412
1585	 0.462799347770455
1586	 0.462888540167217
1587	 0.462995962466501
1588	 0.4630490983202
1589	 0.463082232479347
1590	 0.463139030788781
1591	 0.463162749804929
1592	 0.463242048306295
1593	 0.463346236730923
1594	 0.463406268443616
1595	 0.463482055044086
1596	 0.463502232849823
1597	 0.463529170632658
1598	 0.463623208148982
1599	 0.463728754700993
1600	 0.463864390029044
1601	 0.463943659528708
1602	 0.463978374766549
1603	 0.464000253220593
1604	 0.463986015161214
1605	 0.464020546787778
1606	 0.464058394141971
1607	 0.464088981389959
1608	 0.464120483728662
1609	 0.464129412513453
1610	 0.46414730867069
1611	 0.464139385884171
1612	 0.464131592794721
1613	 0.464157021439099
1614	 0.464215562346231
1615	 0.464267053105735
1616	 0.464306640160176
1617	 0.464345061514707
1618	 0.464355779488012
1619	 0.464326636994809
1620	 0.464295475758393
1621	 0.464246746853901
1622	 0.46424970410703
1623	 0.464236541738849
1624	 0.464281737521379
1625	 0.464419992265504
1626	 0.464417766652312
1627	 0.464369722206618
1628	 0.464345894224552
1629	 0.464283050524683
1630	 0.464314450621701
1631	 0.464366029749039
1632	 0.46436564031011
1633	 0.464357890872214
1634	 0.464321089375856
1635	 0.464249629958366
1636	 0.464193109424775
1637	 0.464132393280312
1638	 0.464059098952705
1639	 0.464017151175224
1640	 0.463985438156839
1641	 0.463961604307089
1642	 0.464014460644522
1643	 0.463991610711619
1644	 0.463889001887614
1645	 0.463831854965805
1646	 0.463726090616454
1647	 0.463670931495116
1648	 0.463735458604383
1649	 0.46372119992329
1650	 0.463704788767757
1651	 0.463635642312978
1652	 0.463450324785664
1653	 0.463322485580392
1654	 0.463182596631482
1655	 0.463070796818901
1656	 0.463018930191773
1657	 0.462947302714415
1658	 0.462878360931343
1659	 0.462805004178543
1660	 0.462721182582007
1661	 0.462642967925567
1662	 0.462558421499367
1663	 0.462486799423692
1664	 0.462452905135548
1665	 0.462373770364928
1666	 0.462276960256575
1667	 0.462173134911133
1668	 0.462045161059276
1669	 0.461897118414867
1670	 0.461710858790534
1671	 0.461568874618228
1672	 0.461432055972584
1673	 0.461288877365167
1674	 0.461172701895795
1675	 0.461061338772578
1676	 0.460929174352736
1677	 0.460818241832044
1678	 0.460776350921165
1679	 0.460660556357733
1680	 0.460508841433882
1681	 0.46034171813172
1682	 0.460118297951322
1683	 0.459918811406244
1684	 0.459701292875579
1685	 0.4595246032641
1686	 0.459351679758168
1687	 0.459217654345855
1688	 0.459157407179254
1689	 0.459045477807719
1690	 0.458950177338212
1691	 0.458812890862424
1692	 0.458631667832759
1693	 0.458442422322408
1694	 0.458222461755947
1695	 0.458025553299561
1696	 0.457821893999856
1697	 0.457619490364996
1698	 0.457426910880725
1699	 0.457236563481185
1700	 0.457055030555597
1701	 0.456845191035903
1702	 0.456636840805787
1703	 0.456400052253884
1704	 0.456114984170274
1705	 0.455860185487585
1706	 0.455604951187766
1707	 0.455372643824258
1708	 0.455168704745445
1709	 0.454931217753559
1710	 0.45469779077229
1711	 0.454431693159647
1712	 0.454130068664498
1713	 0.453844775384238
1714	 0.453548696719132
1715	 0.453266647310071
1716	 0.453010692318691
1717	 0.452673397341941
1718	 0.452304629069962
1719	 0.451921763472111
1720	 0.451543936919965
1721	 0.451216003895149
1722	 0.450907812803495
1723	 0.450598496415555
1724	 0.450238484099139
1725	 0.449872939992362
1726	 0.44951074658731
1727	 0.4491530818475
1728	 0.448805954690351
1729	 0.448436177642717
1730	 0.448038214085893
1731	 0.44759215640187
1732	 0.447148980830015
1733	 0.446764834510453
1734	 0.446381035467645
1735	 0.445964706380117
1736	 0.445543960823467
1737	 0.445042840413838
1738	 0.444609779597711
1739	 0.444231251105787
1740	 0.443846805106864
1741	 0.443513110284687
1742	 0.443127972665851
1743	 0.442725838741284
1744	 0.442308044999383
1745	 0.441832563036276
1746	 0.441406325519928
1747	 0.441018977072427
1748	 0.440570949723787
1749	 0.440116684609661
1750	 0.439668461126916
1751	 0.439186383804591
1752	 0.438696962092254
1753	 0.438187949859508
1754	 0.437720885594364
1755	 0.437280100087143
1756	 0.436772146046838
1757	 0.436287472972047
1758	 0.435787272768824
1759	 0.435181951526051
1760	 0.434684345055803
1761	 0.434219989036144
1762	 0.433669179974312
1763	 0.433135490760789
1764	 0.432651576592006
1765	 0.432094577599021
1766	 0.431557166744853
1767	 0.43107008496475
1768	 0.430538448965585
1769	 0.430038459172256
1770	 0.429552749651295
1771	 0.4290355204871
1772	 0.428482795784384
1773	 0.427914110854227
1774	 0.427374387495938
1775	 0.426837113563812
1776	 0.42630847403667
1777	 0.425808890156795
1778	 0.425294417080427
1779	 0.424769344464506
1780	 0.424284989738213
1781	 0.423795008173664
1782	 0.423310854540542
1783	 0.422802366386755
1784	 0.422261196355634
1785	 0.421766092774292
1786	 0.421265328438029
1787	 0.420797588247212
1788	 0.42038922006721
1789	 0.419983416851464
1790	 0.419576565762694
1791	 0.419198885971118
1792	 0.418842960261873
1793	 0.418492190241604
1794	 0.418163646235309
1795	 0.417953889753526
1796	 0.417751934793933
1797	 0.417491653650962
1798	 0.417258373708849
1799	 0.416923213413758
1800	 0.416609273309613
1801	 0.416372483783294
1802	 0.416108716470097
1803	 0.415881411334369
1804	 0.415601596712048
1805	 0.4153316740357
1806	 0.415147003761721
1807	 0.414895351090581
1808	 0.41465077175359
1809	 0.414425733899281
1810	 0.414102323107177
1811	 0.413817904278414
1812	 0.413566920900201
1813	 0.413333203229746
1814	 0.413093990460438
1815	 0.412824323317033
1816	 0.412558555827793
1817	 0.412265317367204
1818	 0.411951332228614
1819	 0.41175671788691
1820	 0.41153251100844
1821	 0.411354600765561
1822	 0.411260735100985
1823	 0.411133390954659
1824	 0.41102314243252
1825	 0.410857987174798
1826	 0.410673189248791
1827	 0.410559761770496
1828	 0.410410379348945
1829	 0.410247264437233
1830	 0.410006375976718
1831	 0.412300364917052
1832	 0.412128993123304
1833	 0.411820211820108
1834	 0.411469622730766
1835	 0.411092257352522
1836	 0.410720702664784
1837	 0.410211783479482
1838	 0.409777367701978
1839	 0.409440457496845
1840	 0.409048533547781
1841	 0.408518501547986
1842	 0.408040220189919
1843	 0.407646926627122
1844	 0.407180567364621
1845	 0.406946436298715
1846	 0.406948419148583
1847	 0.406851212021687
1848	 0.406847816940502
1849	 0.406805126247662
1850	 0.406703933707201
1851	 0.406549382301722
1852	 0.406254870543933
1853	 0.406032958372221
1854	 0.405763775477974
1855	 0.405491515081893
1856	 0.405070976321061
1857	 0.404681956134747
1858	 0.40403119158379
1859	 0.403205823535601
1860	 0.402259306846235
1861	 0.401117247953637
1862	 0.399931031713278
1863	 0.398586947933708
1864	 0.397101451386846
1865	 0.395554946119791
1866	 0.393975732694067
1867	 0.392134458678192
1868	 0.390156899736177
1869	 0.388001949095786
1870	 0.385559426471043
1871	 0.382932105135519
1872	 0.380252647950228
1873	 0.377442559537681
1874	 0.374568625337083
1875	 0.371564320466465
1876	 0.368541519797763
1877	 0.365456248260745
1878	 0.362267398628404
1879	 0.358946039281546
1880	 0.355721755419658
1881	 0.352389668917876
1882	 0.348949126939346
1883	 0.345492096733994
1884	 0.341835644857206
1885	 0.338116176329716
1886	 0.334188585815696
1887	 0.330014260929181
1888	 0.32583926833619
1889	 0.3214986117322
1890	 0.316978405772038
1891	 0.312284568716937
1892	 0.307507980309118
1893	 0.302630170191551
1894	 0.297679064883083
1895	 0.292824373052127
1896	 0.288085200855597
1897	 0.28329442981751
1898	 0.278458349142506
1899	 0.273677593076959
1900	 0.269044682321928
1901	 0.264457975332349
1902	 0.260084569386438
1903	 0.255936819102536
1904	 0.251934569654714
1905	 0.248238311338882
1906	 0.244762727723186
1907	 0.241607038617719
1908	 0.238902500868911
1909	 0.236507054901607
1910	 0.234478398462215
1911	 0.232825537259864
1912	 0.231547391617732
1913	 0.230620164814585
1914	 0.230003429668885
1915	 0.229693884478014
1916	 0.229691816813027
1917	 0.229821097769319
1918	 0.230233152119954
1919	 0.23089592897831
1920	 0.231704124694916
1921	 0.232691150269826
1922	 0.233770057041002
1923	 0.234844171802547
1924	 0.235995627988112
1925	 0.237095957080762
1926	 0.238184665915003
1927	 0.239281296393827
1928	 0.240374923179092
1929	 0.241400999892339
1930	 0.242310226899012
1931	 0.243142857232946
1932	 0.243896627434554
1933	 0.24462753372123
1934	 0.245371473343752
1935	 0.246129594853593
1936	 0.246903983480315
1937	 0.247649376479757
1938	 0.248286922192096
1939	 0.248946064981727
1940	 0.249520356767738
1941	 0.249991296045481
1942	 0.25060836872826
1943	 0.251186476428708
1944	 0.251723053178779
1945	 0.252287206135943
1946	 0.252852621185511
1947	 0.253406596651175
1948	 0.253971846431813
1949	 0.254518583464511
1950	 0.2550655512464
1951	 0.255633964950309
1952	 0.256172174282392
1953	 0.256769413159542
1954	 0.257311382751266
1955	 0.257837298465856
1956	 0.258374716115569
1957	 0.258821979165067
1958	 0.259355592893232
1959	 0.259910896478515
1960	 0.260519362728731
1961	 0.26117001506228
1962	 0.261886773391175
1963	 0.262601358425226
1964	 0.26333415563205
1965	 0.263994758481604
1966	 0.264667283260468
1967	 0.265277792413459
1968	 0.265783835540043
1969	 0.266415095792257
1970	 0.267065508507473
1971	 0.267777142886377
1972	 0.268604415916254
1973	 0.269383261081442
1974	 0.270206251807588
1975	 0.270922122382339
1976	 0.271600227153795
1977	 0.272353821151745
1978	 0.273096750324496
1979	 0.273862449098943
1980	 0.274651396504098
1981	 0.275476300595207
1982	 0.276249573595296
1983	 0.276964183968374
1984	 0.277718075511079
1985	 0.278463240147602
1986	 0.279211396065663
1987	 0.279956841821126
1988	 0.280775380320024
1989	 0.281561963473733
1990	 0.282357634190041
1991	 0.283176436229889
1992	 0.28398393188548
1993	 0.284782490514579
1994	 0.285590527430495
1995	 0.28639129521668
1996	 0.287234845474786
1997	 0.287992625204689
1998	 0.28868954714454
1999	 0.28939834036541
2000	 0.290075934320267
2001	 0.290721176789888
2002	 0.291392533833249
2003	 0.292133020088821
2004	 0.292947147559457
2005	 0.293759061895512
2006	 0.294544646515407
2007	 0.295356604831858
2008	 0.296160270242885
2009	 0.296943625757879
2010	 0.297699912149363
2011	 0.29849420298714
2012	 0.299213407758967
2013	 0.299860211994802
2014	 0.300501389739199
2015	 0.301135651562735
2016	 0.301702187804859
2017	 0.302220325709193
2018	 0.302778363895995
2019	 0.30336002160545
2020	 0.304003353631015
2021	 0.304695400914182
2022	 0.305559126000749
2023	 0.306184996379455
2024	 0.306777420131676
2025	 0.30729144810727
2026	 0.307551353544994
2027	 0.308008693534566
2028	 0.308530101937488
2029	 0.309064940155517
2030	 0.309594947280278
2031	 0.310092568503591
2032	 0.31050013083301
2033	 0.310765554142032
2034	 0.311060975403036
2035	 0.311462116554264
2036	 0.311808479171599
2037	 0.312132079403531
2038	 0.312499319839279
2039	 0.312905955103126
2040	 0.313231221404284
2041	 0.31353226312012
2042	 0.313862354203722
2043	 0.31416939722482
2044	 0.314459559246761
2045	 0.314775762388516
2046	 0.315054615199048
2047	 0.315316238479411
2048	 0.315481120526264
2049	 0.31562345066524
2050	 0.315831154638031
2051	 0.315973808043526
2052	 0.316055347603071
2053	 0.31618224206209
2054	 0.316262966415604
2055	 0.316414335010823
2056	 0.316637404156824
2057	 0.316799928481884
2058	 0.316955500398714
2059	 0.317187078887967
2060	 0.317277757396009
2061	 0.317368693837418
2062	 0.317495831165834
2063	 0.317583245502232
2064	 0.317709371139433
2065	 0.317741440613653
2066	 0.317715591499659
2067	 0.317578248914166
2068	 0.317522555055359
2069	 0.317439689563482
2070	 0.317392241873059
2071	 0.317405329389975
2072	 0.317373956485249
2073	 0.317326162065597
2074	 0.317246778672462
2075	 0.317109166710299
2076	 0.317068594224831
2077	 0.317016433515889
2078	 0.316841971971559
2079	 0.316749148494183
2080	 0.316576290373679
2081	 0.31639275607284
2082	 0.316156389821471
2083	 0.315974196789446
2084	 0.315782442088763
2085	 0.315607534380441
2086	 0.315436556823547
2087	 0.315309668561718
2088	 0.315201941921489
2089	 0.315117805859455
2090	 0.315136867645804
2091	 0.315049726271712
2092	 0.314891644673542
2093	 0.314770594691162
2094	 0.314672425232954
2095	 0.314527789041005
2096	 0.314394036684775
2097	 0.314279032573622
2098	 0.31406968800013
2099	 0.313781562889232
2100	 0.31345893443438
2101	 0.313101971870119
2102	 0.312679903188141
2103	 0.312215285842258
2104	 0.311657080316107
2105	 0.310968324516066
2106	 0.310330346791509
2107	 0.309613327477744
2108	 0.308932349619298
2109	 0.308261195967744
2110	 0.307654156937638
2111	 0.307011431769746
2112	 0.30640979350247
2113	 0.305948102864939
2114	 0.305534458101392
2115	 0.305166666008178
2116	 0.304932721908808
2117	 0.304602057632103
2118	 0.304295741769456
2119	 0.303923463353739
2120	 0.303486425915697
2121	 0.303061657398068
2122	 0.302566508621343
2123	 0.302152815637039
2124	 0.301842017257706
2125	 0.301405234921691
2126	 0.300967418093826
2127	 0.300503610410762
2128	 0.299872226942137
2129	 0.299168788363658
2130	 0.298301855000639
2131	 0.297394290163659
2132	 0.296449972667072
2133	 0.295477010910453
2134	 0.294259525769402
2135	 0.293000808274245
2136	 0.291485397376182
2137	 0.289609426661241
2138	 0.287830481808014
2139	 0.286108889143356
2140	 0.284068483334571
2141	 0.281902481134579
2142	 0.279513266298212
2143	 0.276734915011711
2144	 0.274014600728425
2145	 0.271147521504754
2146	 0.268318825627513
2147	 0.26554386750671
2148	 0.262628968628926
2149	 0.259488529034073
2150	 0.25646509436913
2151	 0.253351316125827
2152	 0.250131009864446
2153	 0.247216810452086
2154	 0.244388974227924
2155	 0.241840327601371
2156	 0.239511578300109
2157	 0.237380661522798
2158	 0.235469850823707
2159	 0.233764435047379
2160	 0.232225632843057
2161	 0.230927780021342
2162	 0.229881013590234
2163	 0.229041622510843
2164	 0.2284814419392
2165	 0.228030513173573
2166	 0.227902174355149
2167	 0.227704780242766
2168	 0.227588611902863
2169	 0.227497188925924
2170	 0.227447846221516
2171	 0.227411946438645
2172	 0.227494785955851
2173	 0.227652188157034
2174	 0.227725422053064
2175	 0.227867886360302
2176	 0.227804217160679
2177	 0.227625953031631
2178	 0.227404185640123
2179	 0.227109536778867
2180	 0.226675555445782
2181	 0.226208045844977
2182	 0.225557899912052
2183	 0.224723339925385
2184	 0.223795119063369
2185	 0.22276346447541
2186	 0.221565085201178
2187	 0.220241947093106
2188	 0.218737372199736
2189	 0.216957478596165
2190	 0.215228594165181
2191	 0.213450227956883
2192	 0.211469437771491
2193	 0.209573589340715
2194	 0.207614967347347
2195	 0.205477865649014
2196	 0.203221314494682
2197	 0.200736816299124
2198	 0.198112007985924
2199	 0.195232100464358
2200	 0.192104913893906
2201	 0.188782286288703
2202	 0.185079068342695
2203	 0.181546124186584
2204	 0.177526411121908
2205	 0.17436389950954
2206	 0.170971647571709
2207	 0.169044184054158
2208	 0.1677493646553
2209	 0.167744082449405
2210	 0.169049192449145
2211	 0.171183516230652
2212	 0.174674610387521
2213	 0.178543921290431
2214	 0.183643282000836
2215	 0.188649463013778
2216	 0.19428256229154
2217	 0.199806451531213
2218	 0.205184156287925
2219	 0.210110402468708
2220	 0.214587692544022
2221	 0.218667960198759
2222	 0.222329928338804
2223	 0.22566169744522
2224	 0.228501034069197
2225	 0.230925480116697
2226	 0.232827253814734
2227	 0.234106599804917
2228	 0.235269655151699
2229	 0.235929469597763
2230	 0.23657025660815
2231	 0.237020806407408
2232	 0.237308924222588
2233	 0.237331699789174
2234	 0.237319584856684
2235	 0.237055212197147
2236	 0.236928941186846
2237	 0.236713600222541
2238	 0.236647118731627
2239	 0.236579595860051
2240	 0.236756655372676
2241	 0.237117444325422
2242	 0.237557381417524
2243	 0.238246618188062
2244	 0.23891137633147
2245	 0.239740910709738
2246	 0.240382761497452
2247	 0.240872458428697
2248	 0.241391443345202
2249	 0.241960163431085
2250	 0.242449353330057
2251	 0.242973941930374
2252	 0.243480084157502
2253	 0.243727680803335
2254	 0.243776933643278
2255	 0.243816342996469
2256	 0.24386840957555
2257	 0.243829873557187
2258	 0.243674345094036
2259	 0.243598885230259
2260	 0.243475137554526
2261	 0.243369351925234
2262	 0.243354646160948
2263	 0.243241211055934
2264	 0.243101494583477
2265	 0.242929678951153
2266	 0.242741666718416
2267	 0.242383313302666
2268	 0.241882960780348
2269	 0.241434455609554
2270	 0.240846455385675
2271	 0.240383839128705
2272	 0.240092379095842
2273	 0.239606543586272
2274	 0.238937480636964
2275	 0.238439984409573
2276	 0.237990610705771
2277	 0.237523213749311
2278	 0.237240391075669
2279	 0.236816621169274
2280	 0.236241821433957
2281	 0.235609506431391
2282	 0.234959439790341
2283	 0.234169002657096
2284	 0.233418187614986
2285	 0.232748883841198
2286	 0.231838595905967
2287	 0.231174533827646
2288	 0.230458940109066
2289	 0.229643950683236
2290	 0.229246772755692
2291	 0.228763738944531
2292	 0.228226276562608
2293	 0.227707115336147
2294	 0.226953907126628
2295	 0.226154142263119
2296	 0.225290502365386
2297	 0.224427653069358
2298	 0.223619664434328
2299	 0.222772843998772
2300	 0.221871133933291
2301	 0.22098588247551
2302	 0.220038308154391
2303	 0.218968630882843
2304	 0.217986245054212
2305	 0.217029057882139
2306	 0.216064536131505
2307	 0.215112119093612
2308	 0.214149215131493
2309	 0.213145491666848
2310	 0.212264767492003
2311	 0.211395773037117
2312	 0.21070936234162
2313	 0.210207400825387
2314	 0.209613643541988
2315	 0.209053846525328
2316	 0.20851909032437
2317	 0.207962696964597
2318	 0.207538628171542
2319	 0.207227177169143
2320	 0.20691453186481
2321	 0.206608902145097
2322	 0.206400694179495
2323	 0.206303102015477
2324	 0.206187247304632
2325	 0.206107908661204
2326	 0.206103144882871
2327	 0.206220475515924
2328	 0.206116730454041
2329	 0.206065379869606
2330	 0.205879032829753
2331	 0.205230135936424
2332	 0.205084085449105
2333	 0.205288069177353
2334	 0.205231689047684
2335	 0.205373835590203
2336	 0.205274657949184
2337	 0.204875755679904
2338	 0.204484012792269
2339	 0.2040337776859
2340	 0.203523176042947
2341	 0.20296209369359
2342	 0.202262955234807
2343	 0.201452488583309
2344	 0.200697796413817
2345	 0.199547029918372
2346	 0.198561829840825
2347	 0.197611420463026
2348	 0.196428659652129
2349	 0.195800726676855
2350	 0.195032531377524
2351	 0.194182293437413
2352	 0.19384360248963
2353	 0.193418876153732
2354	 0.192995010265195
2355	 0.19277841526392
2356	 0.192529116335614
2357	 0.191915358513826
2358	 0.191469405025915
2359	 0.191156730802061
2360	 0.190620173038906
2361	 0.190571674943602
2362	 0.190370534756765
2363	 0.189896145654279
2364	 0.189654599431903
2365	 0.18918694458537
2366	 0.188783847866737
2367	 0.18851792342793
2368	 0.187990825545392
2369	 0.187209700715385
2370	 0.186159201042597
2371	 0.185131586780679
2372	 0.18406481525087
2373	 0.182874467181249
2374	 0.18192135079269
2375	 0.180778958201126
2376	 0.179733300076478
2377	 0.179253966841694
2378	 0.178720779402918
2379	 0.177952929841582
2380	 0.177459494080305
2381	 0.177020002600242
2382	 0.176485958391534
2383	 0.17652289059882
2384	 0.176432563840413
2385	 0.17612907908936
2386	 0.175996295512622
2387	 0.17557839917531
2388	 0.175403019304147
2389	 0.175249773516337
2390	 0.175145058543476
2391	 0.175385238763919
2392	 0.175504265939015
2393	 0.175703258889248
2394	 0.175954117083711
2395	 0.175816304136095
2396	 0.175348718222458
2397	 0.175245088763764
2398	 0.175224418349789
2399	 0.175396962189947
2400	 0.175927730213474
2401	 0.176058324270338
2402	 0.175934588016634
2403	 0.175760823806948
2404	 0.175680424242271
2405	 0.175558871061963
2406	 0.175312186082298
2407	 0.174753505960872
2408	 0.174034299949148
2409	 0.17328455720881
2410	 0.172545564264352
2411	 0.172237115482679
2412	 0.17198638413925
2413	 0.171745949703638
2414	 0.171279337324587
2415	 0.170651786398094
2416	 0.169774422141117
2417	 0.168817304960481
2418	 0.168282366585702
2419	 0.167502511718948
2420	 0.166841017038334
2421	 0.166327320395671
2422	 0.165345320302863
2423	 0.164536717069325
2424	 0.163876799378122
2425	 0.163428361915645
2426	 0.162990606568841
2427	 0.162546863389901
2428	 0.161983327083206
2429	 0.161516735347128
2430	 0.16076348749605
2431	 0.159807475077047
2432	 0.158921092015092
2433	 0.15761943530475
2434	 0.156832424559348
2435	 0.156548968795911
2436	 0.15585855365568
2437	 0.155282861217569
2438	 0.154753563023602
2439	 0.153721080597074
2440	 0.153474479541858
2441	 0.152994573480186
2442	 0.151801546126668
2443	 0.151288739931868
2444	 0.150644330401186
2445	 0.150244364453677
2446	 0.15046199779217
2447	 0.150254045127476
2448	 0.149910934238466
2449	 0.148818296944994
2450	 0.147768249243788
2451	 0.147939568070068
2452	 0.14756593625532
2453	 0.147224142935103
2454	 0.147029898490077
2455	 0.145282118811809
2456	 0.144461787190863
2457	 0.144593973184778
2458	 0.144257529760354
2459	 0.1442620823156
2460	 0.143384317911565
2461	 0.142304127185456
2462	 0.142189977174727
2463	 0.142767536077014
2464	 0.143356481637556
2465	 0.143312856373331
2466	 0.142840897597684
2467	 0.141967712432162
2468	 0.141343595635014
2469	 0.141156205856036
2470	 0.140617831162569
2471	 0.139307521518116
2472	 0.138399951115702
2473	 0.137631072635313
2474	 0.136521735986313
2475	 0.136326921075049
2476	 0.135775917979036
2477	 0.134384486723366
2478	 0.133679626557727
2479	 0.132593303579543
2480	 0.13263028527943
2481	 0.133226955963
2482	 0.133017613958195
2483	 0.132729990760383
2484	 0.131418565628574
2485	 0.129823592148717
2486	 0.129290979348864
2487	 0.128669939826867
2488	 0.128341376554193
2489	 0.12911081209931
2490	 0.129333219514868
2491	 0.129286272884148
2492	 0.130438695000717
2493	 0.130598904434272
2494	 0.128995239308446
2495	 0.128963199804976
2496	 0.129556217917971
2497	 0.129315136360499
2498	 0.130737579416819
2499	 0.13061051231346
2500	 0.128298269321958
