Wavelength	signature0025.asd
350	 0.16874071754317
351	 0.165812586756674
352	 0.162237325920052
353	 0.161004595878112
354	 0.162457621308148
355	 0.161254608744968
356	 0.16237489916863
357	 0.163666205494852
358	 0.158579991709111
359	 0.153778991928973
360	 0.154698621089011
361	 0.159576497755213
362	 0.158452120691219
363	 0.157063177324911
364	 0.158112200383389
365	 0.160961387441796
366	 0.158997070368584
367	 0.153226262744894
368	 0.14953696481643
369	 0.1525633088452
370	 0.154653233795049
371	 0.156697759917524
372	 0.158423545043017
373	 0.158563027103465
374	 0.154989513771144
375	 0.154470750471116
376	 0.157647291378778
377	 0.157507675848649
378	 0.153571601421381
379	 0.152533858911986
380	 0.156783405505236
381	 0.157134793346135
382	 0.155733076662079
383	 0.154628707212564
384	 0.15538533498957
385	 0.157020600808242
386	 0.160026011585083
387	 0.16229069088102
388	 0.161065116644308
389	 0.16055589794507
390	 0.159951406532249
391	 0.159686053888596
392	 0.1618276788002
393	 0.16139922455146
394	 0.16137813842619
395	 0.163214179072261
396	 0.161695834476408
397	 0.162905580370777
398	 0.165215272417547
399	 0.165673023792526
400	 0.166402197894254
401	 0.167047492331195
402	 0.168043580634635
403	 0.169821571414332
404	 0.167855027812394
405	 0.166721435322147
406	 0.16776883635553
407	 0.16724626943995
408	 0.167721312762536
409	 0.168361788584197
410	 0.168408899798096
411	 0.169112411620253
412	 0.169059742534906
413	 0.169485178064932
414	 0.171564191628205
415	 0.170502702627448
416	 0.17069694561161
417	 0.172637243109293
418	 0.173299272635062
419	 0.173390526371177
420	 0.173570500821885
421	 0.174244438202367
422	 0.175448874260741
423	 0.175784299494432
424	 0.175933433068104
425	 0.176853831256993
426	 0.178209444061202
427	 0.179110716816866
428	 0.1795509303055
429	 0.180096644951299
430	 0.181175496412861
431	 0.181803513909616
432	 0.181949768262012
433	 0.182982711126656
434	 0.183903440893023
435	 0.184566743420063
436	 0.185117439828035
437	 0.185887094268612
438	 0.187053734529487
439	 0.188197647903845
440	 0.188745681943783
441	 0.189088851336218
442	 0.190118649683794
443	 0.191454269426468
444	 0.191441143046596
445	 0.192436493314705
446	 0.193392863330418
447	 0.193672012588655
448	 0.195420358102196
449	 0.196411971386294
450	 0.196694010239173
451	 0.197143094305778
452	 0.19768176814984
453	 0.198705999529187
454	 0.200056809892998
455	 0.20106176240146
456	 0.201619779554406
457	 0.202181240586044
458	 0.203051620979692
459	 0.204089218766462
460	 0.20438574640407
461	 0.204494873351395
462	 0.205263767612713
463	 0.206212966724199
464	 0.206616546705009
465	 0.206707213560732
466	 0.207439201199903
467	 0.208043284927817
468	 0.208660314863091
469	 0.209326593457481
470	 0.209592884477155
471	 0.20998620170611
472	 0.210507330438171
473	 0.210980721403429
474	 0.211283717566993
475	 0.21153643946791
476	 0.212091989734134
477	 0.21330744067363
478	 0.213525483759703
479	 0.213528740754341
480	 0.21403454202479
481	 0.215017442407355
482	 0.215442857399688
483	 0.215699810989636
484	 0.216399359390378
485	 0.216970133521016
486	 0.217443806814816
487	 0.217938442890243
488	 0.218581373797336
489	 0.218900523810938
490	 0.219406873217386
491	 0.220241727465108
492	 0.220627371290163
493	 0.221238272103507
494	 0.221863289279163
495	 0.222211331003614
496	 0.222867382855689
497	 0.223526163810145
498	 0.224152922211565
499	 0.22491698458667
500	 0.225538991014411
501	 0.226041362058852
502	 0.226547229154567
503	 0.227287672614765
504	 0.227926757907384
505	 0.228557895594648
506	 0.229332102115055
507	 0.229982484167177
508	 0.230616257336053
509	 0.23119021255032
510	 0.231567123253087
511	 0.232324184964738
512	 0.233012146564266
513	 0.233390094978358
514	 0.233975286971784
515	 0.234671870633377
516	 0.235168261098138
517	 0.235298431778094
518	 0.236089264871722
519	 0.236709101988828
520	 0.237109415151427
521	 0.237992900005544
522	 0.238352146335286
523	 0.238728009747267
524	 0.239506478433831
525	 0.240066133560972
526	 0.240620150963739
527	 0.241231938624561
528	 0.241903605826586
529	 0.24259301767695
530	 0.243261429175575
531	 0.243856750935131
532	 0.244324200287575
533	 0.245030886391776
534	 0.245854195640117
535	 0.246614940953996
536	 0.24727755438035
537	 0.247952024830087
538	 0.248666045453463
539	 0.249415016451392
540	 0.250280981887755
541	 0.25111232778448
542	 0.251909833223117
543	 0.252883049875928
544	 0.25366531791596
545	 0.25446823383029
546	 0.255494083489681
547	 0.256465667371384
548	 0.257377930995522
549	 0.258326495189097
550	 0.259430473275424
551	 0.26042697173409
552	 0.261469596015112
553	 0.262587300164835
554	 0.26353351645212
555	 0.264543506738197
556	 0.2656182848744
557	 0.266691595596731
558	 0.267700438169297
559	 0.268818238523908
560	 0.270032376806311
561	 0.271190864185618
562	 0.272353933495702
563	 0.273471157271694
564	 0.274553348739706
565	 0.275755495365762
566	 0.277040830430327
567	 0.278309242540313
568	 0.279487840080691
569	 0.280767126371173
570	 0.282120617423245
571	 0.283515280946742
572	 0.284927064605336
573	 0.286388235704562
574	 0.287967643406648
575	 0.289698163435697
576	 0.291504937010108
577	 0.293355468637728
578	 0.295169376177277
579	 0.296868261488583
580	 0.298527550217122
581	 0.300222464556525
582	 0.30189066638783
583	 0.303307267395057
584	 0.304555328615818
585	 0.305882276224472
586	 0.307345771574294
587	 0.308310104183392
588	 0.309431344876244
589	 0.310687375017055
590	 0.311713511491212
591	 0.312779410904579
592	 0.313646746433438
593	 0.314258862845606
594	 0.31488505881851
595	 0.315545600750656
596	 0.316148345823272
597	 0.316605073093441
598	 0.317006926435397
599	 0.317473143914889
600	 0.317914912021836
601	 0.318124374035859
602	 0.318382441667585
603	 0.318767986248482
604	 0.319229652914007
605	 0.319537511274961
606	 0.319746288265512
607	 0.320044468381166
608	 0.320538213880608
609	 0.320693434609054
610	 0.320927415804437
611	 0.321353665014397
612	 0.321757566308156
613	 0.321808754498429
614	 0.321948364321671
615	 0.32244612324698
616	 0.322852625973142
617	 0.323186514598677
618	 0.32352162994249
619	 0.323952777939256
620	 0.324436502330397
621	 0.324869582914511
622	 0.325287850393299
623	 0.32587768524108
624	 0.326465608576252
625	 0.326988070415526
626	 0.327468058793411
627	 0.32809399415152
628	 0.328801953478503
629	 0.329479633415444
630	 0.330047415059324
631	 0.330869164788401
632	 0.33178447304403
633	 0.332655609767491
634	 0.333448565207571
635	 0.334273067618672
636	 0.335189269287476
637	 0.336209035713422
638	 0.33723772006521
639	 0.338303144428355
640	 0.33939533868054
641	 0.340473977157075
642	 0.341470504710004
643	 0.342522133306621
644	 0.343651195600455
645	 0.344660611213057
646	 0.345609241373329
647	 0.346600400594496
648	 0.34768047931978
649	 0.348607325360838
650	 0.349541234727518
651	 0.3505166565861
652	 0.351470930187025
653	 0.352440823572004
654	 0.353408091151483
655	 0.354334432115365
656	 0.355136735185786
657	 0.356139725957414
658	 0.357231880435541
659	 0.358216732888559
660	 0.359265217756636
661	 0.360434954085141
662	 0.361675642851353
663	 0.362860936679964
664	 0.364114906410266
665	 0.365390949371128
666	 0.366646643379517
667	 0.367905580242204
668	 0.369236175084983
669	 0.370583587781924
670	 0.371865499959141
671	 0.373134555356486
672	 0.374380297928359
673	 0.375582782945922
674	 0.37671936852019
675	 0.377796597774609
676	 0.378898150241715
677	 0.380052508069929
678	 0.381132480517173
679	 0.382104545634553
680	 0.383147813386514
681	 0.384433251729395
682	 0.385546444055918
683	 0.386639722073488
684	 0.38777864529804
685	 0.388905365551296
686	 0.390127670189783
687	 0.391372830300368
688	 0.392600176784576
689	 0.393941599536773
690	 0.395293752611803
691	 0.396658287093379
692	 0.398063459241347
693	 0.399410639585114
694	 0.400780024222679
695	 0.402158600820061
696	 0.403430060853309
697	 0.40467960304584
698	 0.405921210787609
699	 0.407135696141929
700	 0.408259921982067
701	 0.409345886274332
702	 0.410410393916048
703	 0.411452085954436
704	 0.41245224262366
705	 0.413428112362627
706	 0.41437135343483
707	 0.415250451615353
708	 0.416214705759376
709	 0.417101575523345
710	 0.417817775829528
711	 0.418575763197257
712	 0.419348296013543
713	 0.420124716014374
714	 0.420884823534849
715	 0.421559874017372
716	 0.422266096837649
717	 0.423005440101954
718	 0.423664484299663
719	 0.424305635641058
720	 0.424906067605413
721	 0.425464022683887
722	 0.426050635547168
723	 0.426679039333389
724	 0.427255635469585
725	 0.427706845308654
726	 0.428291332502982
727	 0.428779975112389
728	 0.429194881062676
729	 0.429772387041188
730	 0.430253277377118
731	 0.430670059753801
732	 0.431085148079263
733	 0.431529235643546
734	 0.431889476165941
735	 0.432242458658683
736	 0.432679321645683
737	 0.433067858407083
738	 0.433414103532071
739	 0.433755586222482
740	 0.434141225798817
741	 0.434517556161678
742	 0.434907858896841
743	 0.435301653228294
744	 0.435621653839576
745	 0.435913700261107
746	 0.436186464908256
747	 0.436451654228268
748	 0.436764504026302
749	 0.437066645949904
750	 0.43735098197528
751	 0.437640462384782
752	 0.437944614484237
753	 0.43819405435297
754	 0.438403132674298
755	 0.43868920453083
756	 0.438875998449514
757	 0.439055609875826
758	 0.439301025963973
759	 0.439485807126929
760	 0.439626007454572
761	 0.43978857901747
762	 0.440031865380521
763	 0.440236784232316
764	 0.440438755398456
765	 0.440625526741347
766	 0.440746351050996
767	 0.440898173685369
768	 0.441044394167235
769	 0.441180550461494
770	 0.441399723786895
771	 0.441537815030184
772	 0.441649639946442
773	 0.44181102925807
774	 0.441918849209783
775	 0.442072535190185
776	 0.442233474524511
777	 0.442310911148366
778	 0.442467897303662
779	 0.442570507514636
780	 0.442621456322065
781	 0.442797368071692
782	 0.442935568125947
783	 0.443051005347131
784	 0.443169916093166
785	 0.443264552393549
786	 0.443342893165119
787	 0.443383835930398
788	 0.443400170845565
789	 0.443587248639767
790	 0.443735509778627
791	 0.443823383695457
792	 0.443950200500584
793	 0.44398830517453
794	 0.444063476859045
795	 0.444173950415864
796	 0.444133426940071
797	 0.444200200141736
798	 0.444263321219323
799	 0.444246530351419
800	 0.444368885255479
801	 0.444347649202777
802	 0.444278905405943
803	 0.444335753013783
804	 0.444379125274817
805	 0.444433536882867
806	 0.444481960609385
807	 0.444483851450694
808	 0.44444610861021
809	 0.444504274895401
810	 0.444637283100379
811	 0.444634457714663
812	 0.444674971354567
813	 0.444708782284858
814	 0.444699048932401
815	 0.44473650672201
816	 0.444731026830368
817	 0.444743610810109
818	 0.444830405713905
819	 0.444841122847878
820	 0.444876825618712
821	 0.444918596317455
822	 0.444902242004971
823	 0.444945131391727
824	 0.444982225986892
825	 0.445002490416901
826	 0.445051662374071
827	 0.445015343543195
828	 0.445037852917408
829	 0.445125954934583
830	 0.445012261197347
831	 0.445019208043553
832	 0.445032899268983
833	 0.444933954094804
834	 0.444882754136388
835	 0.444915352098694
836	 0.445017071653983
837	 0.445119541012834
838	 0.445057472745861
839	 0.444997124750701
840	 0.444972349764361
841	 0.444931187300794
842	 0.44490481205949
843	 0.444938807783115
844	 0.44498257971623
845	 0.444914319258466
846	 0.444975605206363
847	 0.4450273046497
848	 0.44499438814252
849	 0.444993675582833
850	 0.444986744468314
851	 0.444978242197774
852	 0.444971240000275
853	 0.444943172788227
854	 0.444932679525898
855	 0.444929757905922
856	 0.444901608068261
857	 0.444786193723527
858	 0.444763921988192
859	 0.44487479075673
860	 0.445048829125948
861	 0.445107228239234
862	 0.445127213278366
863	 0.445132776251158
864	 0.445099567128984
865	 0.445041423536638
866	 0.44501159353179
867	 0.445043824697437
868	 0.445133833027713
869	 0.445129819124999
870	 0.445148836335058
871	 0.445231199917757
872	 0.445236136300807
873	 0.445252446912357
874	 0.445287233784279
875	 0.445320943116895
876	 0.445314675815288
877	 0.44536589813837
878	 0.445394226331576
879	 0.445356116274281
880	 0.445488576189841
881	 0.445568255538261
882	 0.445600607083698
883	 0.445666110390079
884	 0.445752654587738
885	 0.445854380793589
886	 0.445935540901394
887	 0.445953393101174
888	 0.445890900926454
889	 0.445942001940509
890	 0.446113785985541
891	 0.446264237199667
892	 0.446282824359028
893	 0.446272532331935
894	 0.446340269665448
895	 0.446537869877879
896	 0.446627776132186
897	 0.446657152767894
898	 0.446679843684412
899	 0.44671838926948
900	 0.44690095300739
901	 0.447064213090575
902	 0.447121030343718
903	 0.447166301874494
904	 0.447415798642903
905	 0.447663184574901
906	 0.447750179312083
907	 0.447756406266439
908	 0.447898992170527
909	 0.448104543333736
910	 0.4482461807634
911	 0.448254610028623
912	 0.448234465196673
913	 0.448361806599515
914	 0.448698159159564
915	 0.449028262096165
916	 0.449015422692354
917	 0.448961148375624
918	 0.449203728521203
919	 0.449607845842722
920	 0.449758498921964
921	 0.449739110428225
922	 0.449784850667231
923	 0.449993653104084
924	 0.450027341270014
925	 0.450004200156164
926	 0.450167594837214
927	 0.450550451408289
928	 0.450827042330102
929	 0.450965153035058
930	 0.451076676584117
931	 0.45127283200326
932	 0.451326579657364
933	 0.45138022507371
934	 0.451632908193391
935	 0.451829312832665
936	 0.451933576075136
937	 0.45193509458098
938	 0.451893093892454
939	 0.452042482886373
940	 0.452328783011517
941	 0.452596273872301
942	 0.452716615967172
943	 0.452855731820864
944	 0.453016817187964
945	 0.453280261188716
946	 0.453661824408981
947	 0.453815823653659
948	 0.453714779062849
949	 0.453681907076708
950	 0.454013376278334
951	 0.454245493853385
952	 0.45421507666358
953	 0.454230549124528
954	 0.454615124853588
955	 0.454861251566841
956	 0.455010590248334
957	 0.4552115923335
958	 0.455529150834143
959	 0.455547975528515
960	 0.455515758262514
961	 0.455760830051705
962	 0.456332901749668
963	 0.456281227410541
964	 0.456536461984613
965	 0.457017376393239
966	 0.457334370897443
967	 0.457418956295532
968	 0.457529570130593
969	 0.457731220280136
970	 0.458017163051053
971	 0.45840998634886
972	 0.458484112988143
973	 0.458735389889455
974	 0.459358573318387
975	 0.459266185618495
976	 0.459390592520802
977	 0.459882847659745
978	 0.460463087580141
979	 0.460523864637598
980	 0.460440921659086
981	 0.460624603206491
982	 0.461113862460322
983	 0.461396151690081
984	 0.461574733429145
985	 0.46195792548843
986	 0.462459343875129
987	 0.462549969765813
988	 0.463034187069377
989	 0.463319811679292
990	 0.463221228985036
991	 0.463157861982804
992	 0.463102226751594
993	 0.463507656005151
994	 0.46407747958558
995	 0.464130322113824
996	 0.464468686332993
997	 0.465024604907946
998	 0.465474657823491
999	 0.465559139399278
1000	 0.465784520160292
1001	 0.456599136247105
1002	 0.456825284155127
1003	 0.457001791337473
1004	 0.457116660610751
1005	 0.457306470092224
1006	 0.457533314599665
1007	 0.457863829511739
1008	 0.458020320579616
1009	 0.45814030819182
1010	 0.458115996288453
1011	 0.458369640075903
1012	 0.458502046617687
1013	 0.45863233473587
1014	 0.459138884585144
1015	 0.459285015828535
1016	 0.459189804883647
1017	 0.459347648710205
1018	 0.459481460539917
1019	 0.459630211034658
1020	 0.459957907991247
1021	 0.460264672807764
1022	 0.460430669238018
1023	 0.460559771554635
1024	 0.460648372422948
1025	 0.460690596003625
1026	 0.460754612408526
1027	 0.460842107672755
1028	 0.460878291055223
1029	 0.46100224919796
1030	 0.461198248171203
1031	 0.461362525795744
1032	 0.461543029273131
1033	 0.461703523107514
1034	 0.461844035737233
1035	 0.461981057918511
1036	 0.462105907719343
1037	 0.462264612192126
1038	 0.46241919275324
1039	 0.46257428363357
1040	 0.462736621788389
1041	 0.462854833018135
1042	 0.462971302786741
1043	 0.463108875597943
1044	 0.463153489729249
1045	 0.463284774440643
1046	 0.463372615411571
1047	 0.463386664950395
1048	 0.463577476984107
1049	 0.463717853281079
1050	 0.463812748656703
1051	 0.463975944388622
1052	 0.464079613232067
1053	 0.464213409693213
1054	 0.464346774147165
1055	 0.464499230809994
1056	 0.464640888827432
1057	 0.464825023839008
1058	 0.464941289234369
1059	 0.465060330226604
1060	 0.465208761834915
1061	 0.465300124002863
1062	 0.465434368754892
1063	 0.465667970210659
1064	 0.465885330370251
1065	 0.466011040503577
1066	 0.466046899452034
1067	 0.466114854295869
1068	 0.466277609905365
1069	 0.466553876047748
1070	 0.466718875520821
1071	 0.466924102110649
1072	 0.467104131065372
1073	 0.467089243305244
1074	 0.467119644692547
1075	 0.467229232612166
1076	 0.4672761755842
1077	 0.467340556790897
1078	 0.467393704622322
1079	 0.467546936410338
1080	 0.467746021072551
1081	 0.467852000507846
1082	 0.468028922090563
1083	 0.468190530595195
1084	 0.46827648699388
1085	 0.468400554316479
1086	 0.468607501332559
1087	 0.468746821157232
1088	 0.468829334940821
1089	 0.46895346754322
1090	 0.469107911860968
1091	 0.469224227913632
1092	 0.469345353486533
1093	 0.469359911919565
1094	 0.469391483785668
1095	 0.469549748173919
1096	 0.469669761603844
1097	 0.469799080546446
1098	 0.469907712087156
1099	 0.469965703379934
1100	 0.47002987292336
1101	 0.47003987787381
1102	 0.470237717475188
1103	 0.470618250842913
1104	 0.470741473207222
1105	 0.470857201861118
1106	 0.470940171888475
1107	 0.470778873881885
1108	 0.470716101512332
1109	 0.470869075246514
1110	 0.470965899088752
1111	 0.471061162577935
1112	 0.471232024884514
1113	 0.471322663549632
1114	 0.471354973402182
1115	 0.471464050471187
1116	 0.471594840718865
1117	 0.471654623837091
1118	 0.471726679302859
1119	 0.47179776187806
1120	 0.471814275356208
1121	 0.471819913882417
1122	 0.471931466485794
1123	 0.472039752461149
1124	 0.4720835526092
1125	 0.472204508788334
1126	 0.472343064764843
1127	 0.47240333411308
1128	 0.472418724753318
1129	 0.4724453881157
1130	 0.472497342816177
1131	 0.472536077170846
1132	 0.472596617936258
1133	 0.472721639029223
1134	 0.472776532171802
1135	 0.47282033157632
1136	 0.472804136581054
1137	 0.472700918252911
1138	 0.472675845033941
1139	 0.472637158852063
1140	 0.472621000095776
1141	 0.472683829110588
1142	 0.472671398312251
1143	 0.472669416853105
1144	 0.472647316294488
1145	 0.472603559941976
1146	 0.472548920752066
1147	 0.472507164404286
1148	 0.472441749167664
1149	 0.472377472472127
1150	 0.472278557195544
1151	 0.472274385577889
1152	 0.472321227566892
1153	 0.472345033304876
1154	 0.472447574776869
1155	 0.472494543114449
1156	 0.472480401190233
1157	 0.472464059555965
1158	 0.47252285674762
1159	 0.472633303499378
1160	 0.472733588773806
1161	 0.472858768930393
1162	 0.472960294943584
1163	 0.473031680485303
1164	 0.473123150728204
1165	 0.473245998405001
1166	 0.473315764812292
1167	 0.473357466214838
1168	 0.473423882883655
1169	 0.473436477281734
1170	 0.473528944868781
1171	 0.473723637304285
1172	 0.473832261819735
1173	 0.473912629626357
1174	 0.474013574715203
1175	 0.474092524824466
1176	 0.474145195484768
1177	 0.474290334792984
1178	 0.474423248631541
1179	 0.474434023743681
1180	 0.47445710887109
1181	 0.474545424250377
1182	 0.474633534824971
1183	 0.474728683406728
1184	 0.474906859105125
1185	 0.475029977299526
1186	 0.475110402700712
1187	 0.475187199974476
1188	 0.475303889543455
1189	 0.475343361550864
1190	 0.475292014283271
1191	 0.475291066456719
1192	 0.475234730036751
1193	 0.475256614325316
1194	 0.475338382243168
1195	 0.475421802308848
1196	 0.475548161648721
1197	 0.475723421739278
1198	 0.475846312526322
1199	 0.475979240101116
1200	 0.476055089735471
1201	 0.476071675798534
1202	 0.476146385658844
1203	 0.476207727721222
1204	 0.476295456259469
1205	 0.476434600311365
1206	 0.476530146295842
1207	 0.476615447888422
1208	 0.476694476114459
1209	 0.476765568766113
1210	 0.476829138132795
1211	 0.476870648386171
1212	 0.476922001772559
1213	 0.476963250584098
1214	 0.477018273142047
1215	 0.477104013586783
1216	 0.477192754519787
1217	 0.477221331313467
1218	 0.477227226100614
1219	 0.477242128205203
1220	 0.477198638699932
1221	 0.477212587211021
1222	 0.477283297037541
1223	 0.477302934796758
1224	 0.4772870127796
1225	 0.477316465301616
1226	 0.477347851139965
1227	 0.477393468056238
1228	 0.477502409772909
1229	 0.477554675138736
1230	 0.477553627119161
1231	 0.477593971337252
1232	 0.477645424411646
1233	 0.477682805972362
1234	 0.477727326994302
1235	 0.477788101891539
1236	 0.477839370158031
1237	 0.477849934799436
1238	 0.477933428453454
1239	 0.478079949582805
1240	 0.478159507628079
1241	 0.478259752603928
1242	 0.478303461795669
1243	 0.478281135685709
1244	 0.478287216324128
1245	 0.478269665968851
1246	 0.478280921004566
1247	 0.478293269656807
1248	 0.478328750135672
1249	 0.478391432554343
1250	 0.478453200198259
1251	 0.478544079282953
1252	 0.478611464343357
1253	 0.478667316591495
1254	 0.478726678210783
1255	 0.478782360853864
1256	 0.478820197552201
1257	 0.478888007857904
1258	 0.478988330464012
1259	 0.479027599486302
1260	 0.479051652866184
1261	 0.4790767788146
1262	 0.479064995523649
1263	 0.479068538089989
1264	 0.479083767146649
1265	 0.479097351301107
1266	 0.479077438744477
1267	 0.479109411605701
1268	 0.479210606239777
1269	 0.479244623498139
1270	 0.47925095853748
1271	 0.479284171423244
1272	 0.479307453203818
1273	 0.479314367708863
1274	 0.479316176350077
1275	 0.479350823355739
1276	 0.479370616696632
1277	 0.47940427935238
1278	 0.479459406755636
1279	 0.479593646170553
1280	 0.479611790430354
1281	 0.47957873288348
1282	 0.479560168882244
1283	 0.479487449875108
1284	 0.479467345474411
1285	 0.479486806469703
1286	 0.479468294654551
1287	 0.479447142991901
1288	 0.479416278934185
1289	 0.479353071001654
1290	 0.479312903613192
1291	 0.479272298027167
1292	 0.479250539075321
1293	 0.479261595306484
1294	 0.479245937753975
1295	 0.479237091364673
1296	 0.479211106132756
1297	 0.479145024505736
1298	 0.479100737673548
1299	 0.479040209149537
1300	 0.479016513934165
1301	 0.479021567699874
1302	 0.479079465062062
1303	 0.479046478471753
1304	 0.479012543964664
1305	 0.47895554559416
1306	 0.478811177038254
1307	 0.478748569514508
1308	 0.478722215955463
1309	 0.478694985273689
1310	 0.478699147418442
1311	 0.478673114755489
1312	 0.4786480952306
1313	 0.478613659914568
1314	 0.478571749181836
1315	 0.478506316730236
1316	 0.478426636726382
1317	 0.478351491248191
1318	 0.478258760619091
1319	 0.478157749230739
1320	 0.478064398210695
1321	 0.477955685169056
1322	 0.477830378759692
1323	 0.477698655047052
1324	 0.477556457022985
1325	 0.477415683673306
1326	 0.477273142139129
1327	 0.47710308177911
1328	 0.476951192685664
1329	 0.476800205987715
1330	 0.476655810141937
1331	 0.476524949260571
1332	 0.476377374150063
1333	 0.476229975365329
1334	 0.476070529363105
1335	 0.475888246524433
1336	 0.47572692922728
1337	 0.47556727224546
1338	 0.475416537985376
1339	 0.475302436405348
1340	 0.47513714790506
1341	 0.474960675199508
1342	 0.474764650878902
1343	 0.474480336767519
1344	 0.474280425870681
1345	 0.47414247680547
1346	 0.473965120673344
1347	 0.473875804932172
1348	 0.473683389234095
1349	 0.473429962649295
1350	 0.473085211077358
1351	 0.472772354246212
1352	 0.472445964005921
1353	 0.472181776270292
1354	 0.471967751226864
1355	 0.471685132117694
1356	 0.471370521005565
1357	 0.471100171887637
1358	 0.470799367552803
1359	 0.470556427725495
1360	 0.47038998067114
1361	 0.470177621889639
1362	 0.469955795248704
1363	 0.469746385080901
1364	 0.469555709292625
1365	 0.469323342213376
1366	 0.469105941172165
1367	 0.468834343997943
1368	 0.46854748309067
1369	 0.468184748182657
1370	 0.467786291118732
1371	 0.467323327583169
1372	 0.466805168293353
1373	 0.46621909736661
1374	 0.465620101702653
1375	 0.464890120695987
1376	 0.464073664990771
1377	 0.463161692919129
1378	 0.462110014785699
1379	 0.460925586661852
1380	 0.459637010682921
1381	 0.458195889698115
1382	 0.45659466436465
1383	 0.45492063853374
1384	 0.453168481889319
1385	 0.451231036194547
1386	 0.449457592425393
1387	 0.447605206003138
1388	 0.446009346049896
1389	 0.444487144814644
1390	 0.443186377151912
1391	 0.442100399936699
1392	 0.44103855740908
1393	 0.440160873614822
1394	 0.439225531904246
1395	 0.438388713313718
1396	 0.437421636914894
1397	 0.436495957047295
1398	 0.435376533514267
1399	 0.434108500587391
1400	 0.432797166705787
1401	 0.431358073927053
1402	 0.429891772394654
1403	 0.428355056296149
1404	 0.426804034303947
1405	 0.425146108745649
1406	 0.423561281214384
1407	 0.421969958806047
1408	 0.420422937059096
1409	 0.418908717758064
1410	 0.417492157888539
1411	 0.416216027432547
1412	 0.415112867628655
1413	 0.414262077741084
1414	 0.413684227315818
1415	 0.413359392846205
1416	 0.413237719212282
1417	 0.413258866159178
1418	 0.413522812435355
1419	 0.413808680417021
1420	 0.414253682081439
1421	 0.414686518121
1422	 0.415228981379072
1423	 0.415707751835589
1424	 0.416213963884644
1425	 0.416666105369102
1426	 0.41706997789123
1427	 0.41751290525659
1428	 0.417941176148263
1429	 0.418397501751935
1430	 0.418887087212693
1431	 0.419367820504782
1432	 0.419857088235487
1433	 0.420334690859809
1434	 0.420806942766643
1435	 0.42129331410166
1436	 0.421785538728673
1437	 0.422267055635063
1438	 0.422782111420282
1439	 0.423240968547889
1440	 0.423672960739427
1441	 0.424077981758121
1442	 0.424437822217627
1443	 0.424792199514032
1444	 0.425121659783144
1445	 0.425444043118879
1446	 0.425762674382124
1447	 0.426074952804674
1448	 0.426383105880315
1449	 0.42667735974118
1450	 0.426947666247538
1451	 0.427164028480577
1452	 0.427347855888644
1453	 0.427513088065925
1454	 0.427670502807893
1455	 0.427822549324624
1456	 0.427949710500401
1457	 0.428058476817616
1458	 0.42817466993691
1459	 0.428260343389621
1460	 0.428388806227564
1461	 0.428536543556331
1462	 0.428688822073177
1463	 0.42883366405113
1464	 0.42904584888247
1465	 0.429294465981955
1466	 0.429553851653831
1467	 0.429876316383976
1468	 0.430166300234516
1469	 0.430424787841425
1470	 0.430742388241272
1471	 0.43108656484839
1472	 0.431446084180952
1473	 0.431858358262995
1474	 0.432244615195045
1475	 0.432626883915165
1476	 0.433010476981075
1477	 0.433380028677836
1478	 0.433772313436634
1479	 0.434174162822414
1480	 0.434589622937758
1481	 0.435020893277943
1482	 0.435461104719144
1483	 0.435963655407398
1484	 0.436383623603767
1485	 0.436745033712253
1486	 0.437140907470522
1487	 0.437491200257155
1488	 0.437861907508975
1489	 0.438302051581712
1490	 0.438690462625146
1491	 0.439035046305193
1492	 0.439378246771303
1493	 0.439768850780911
1494	 0.44013918279431
1495	 0.440546151961333
1496	 0.44095700172276
1497	 0.441315393342521
1498	 0.44164750185802
1499	 0.441939602795804
1500	 0.442262481532762
1501	 0.442603017717457
1502	 0.442932837477446
1503	 0.443282875668945
1504	 0.44361049667931
1505	 0.443899924405511
1506	 0.444204628251096
1507	 0.44449917942471
1508	 0.444775236632712
1509	 0.445076228202596
1510	 0.445396188688749
1511	 0.445684381731225
1512	 0.445974363436603
1513	 0.446256767327931
1514	 0.446500126862002
1515	 0.446792188180671
1516	 0.447128580978274
1517	 0.447407990881711
1518	 0.447678939114183
1519	 0.447939717813387
1520	 0.448149296963766
1521	 0.448408437582926
1522	 0.448720241144724
1523	 0.448966098667399
1524	 0.449185494151566
1525	 0.449423568859883
1526	 0.449634301147283
1527	 0.44984596065735
1528	 0.450069793579267
1529	 0.45029457959258
1530	 0.450502642914078
1531	 0.450725358495142
1532	 0.450984330010483
1533	 0.451207994720625
1534	 0.451409673092309
1535	 0.451607136584499
1536	 0.451790849879287
1537	 0.451979670703671
1538	 0.452167081898706
1539	 0.452342918887211
1540	 0.452502787478091
1541	 0.452680763591288
1542	 0.452863663881662
1543	 0.453043159299651
1544	 0.453234269394091
1545	 0.453420583814168
1546	 0.453602141911952
1547	 0.453770963298591
1548	 0.453938648801199
1549	 0.454101477429573
1550	 0.454249388607781
1551	 0.454397861194851
1552	 0.45454072720158
1553	 0.454698016673014
1554	 0.454871428412725
1555	 0.455016940265794
1556	 0.455153261845118
1557	 0.45529271778042
1558	 0.455388988512321
1559	 0.455528702174488
1560	 0.455723556528998
1561	 0.45588397949112
1562	 0.456061189378146
1563	 0.456204847585269
1564	 0.456299519622931
1565	 0.456411639347918
1566	 0.456511608798552
1567	 0.456620536561195
1568	 0.456739221226014
1569	 0.456855257151613
1570	 0.456974661798138
1571	 0.457092444861806
1572	 0.457217016904915
1573	 0.457332650206579
1574	 0.457442415092053
1575	 0.457547643969063
1576	 0.457638246086696
1577	 0.457721770327508
1578	 0.45784049551803
1579	 0.4579407560053
1580	 0.458058547814264
1581	 0.45819620263859
1582	 0.458262421766258
1583	 0.458342969534867
1584	 0.458410204655802
1585	 0.458461739804122
1586	 0.458599116924165
1587	 0.458712974591954
1588	 0.458800045800041
1589	 0.458902570563616
1590	 0.4589478477872
1591	 0.458991045808472
1592	 0.459067858041757
1593	 0.459125995351571
1594	 0.459208950110696
1595	 0.459284914817775
1596	 0.459334155292196
1597	 0.459423017837781
1598	 0.459495905103088
1599	 0.459548789080873
1600	 0.459617058345047
1601	 0.459674989817905
1602	 0.459750634995808
1603	 0.459844503424761
1604	 0.459920839272757
1605	 0.459980429076083
1606	 0.459999362063562
1607	 0.459996004545807
1608	 0.459986934593938
1609	 0.460003159016012
1610	 0.460072960340403
1611	 0.460145753740411
1612	 0.460246171855201
1613	 0.460351361277112
1614	 0.460394476923084
1615	 0.460397682975514
1616	 0.460401098053438
1617	 0.460430199758514
1618	 0.460482207101974
1619	 0.460575129934833
1620	 0.460623590447277
1621	 0.46066455225087
1622	 0.460723396455431
1623	 0.460768469319828
1624	 0.460830607628355
1625	 0.460932160378474
1626	 0.46096799907469
1627	 0.460956999638043
1628	 0.461048950100174
1629	 0.461099282957891
1630	 0.461213043575448
1631	 0.461323975376083
1632	 0.461340267624453
1633	 0.461380013080633
1634	 0.461449913674866
1635	 0.461511046860652
1636	 0.461582477317266
1637	 0.461644253029077
1638	 0.461696380156653
1639	 0.461757862581325
1640	 0.461860727200507
1641	 0.461928613142984
1642	 0.461962542211021
1643	 0.462003237543216
1644	 0.462010769149537
1645	 0.462047812349518
1646	 0.462120323810698
1647	 0.462175023694778
1648	 0.46223732406503
1649	 0.462294380971707
1650	 0.462364733996846
1651	 0.462387260397811
1652	 0.462358039874808
1653	 0.462360162275789
1654	 0.462330831082014
1655	 0.462324496192414
1656	 0.462401273541908
1657	 0.462408491614716
1658	 0.462335106096347
1659	 0.462320297195087
1660	 0.462308869474043
1661	 0.462295430855453
1662	 0.462345437448901
1663	 0.462354824212947
1664	 0.462302931383588
1665	 0.462285362821841
1666	 0.462280416518293
1667	 0.462271594979128
1668	 0.462283354088538
1669	 0.46227937142771
1670	 0.462246331921857
1671	 0.462242776504108
1672	 0.462271135803234
1673	 0.462262501640212
1674	 0.462244707999945
1675	 0.462233317150627
1676	 0.46219446726252
1677	 0.462167246096137
1678	 0.462162661577705
1679	 0.462148020925758
1680	 0.462124909104774
1681	 0.462098357292907
1682	 0.462090926796078
1683	 0.462045853631195
1684	 0.46194906542463
1685	 0.461900237198149
1686	 0.46184877176518
1687	 0.461808564652182
1688	 0.461772555341342
1689	 0.461796886566397
1690	 0.461871008921547
1691	 0.461917244782522
1692	 0.462088024668883
1693	 0.462069755045184
1694	 0.461864080580552
1695	 0.461788183480052
1696	 0.461639276818739
1697	 0.461601634691979
1698	 0.461739432838686
1699	 0.461754268442986
1700	 0.461737852257719
1701	 0.461721182566134
1702	 0.461690885102401
1703	 0.461599870498532
1704	 0.46147516478357
1705	 0.461374140612789
1706	 0.461193900896934
1707	 0.461105449621234
1708	 0.461081665400373
1709	 0.46106695514933
1710	 0.461109282634721
1711	 0.461070531890212
1712	 0.461019889987666
1713	 0.460963563874444
1714	 0.460860165914375
1715	 0.460767579327813
1716	 0.460701774062445
1717	 0.460600855792737
1718	 0.460439971637813
1719	 0.460351069493607
1720	 0.460283487656064
1721	 0.460196170065164
1722	 0.460120168451918
1723	 0.460053418918367
1724	 0.45997127861301
1725	 0.459871057039156
1726	 0.459772765651515
1727	 0.459725423573827
1728	 0.459685579193799
1729	 0.459615519490581
1730	 0.459533687572699
1731	 0.459398572506734
1732	 0.459227589931888
1733	 0.459067529510415
1734	 0.458975389420422
1735	 0.458843234927771
1736	 0.458713388406894
1737	 0.458600233633719
1738	 0.458489133050124
1739	 0.458374799115028
1740	 0.458254044651161
1741	 0.458123482934884
1742	 0.458029543993344
1743	 0.45793908666344
1744	 0.457876325740485
1745	 0.457896820794121
1746	 0.457843893424268
1747	 0.457781013318125
1748	 0.457671268961578
1749	 0.457493949628666
1750	 0.457323321487649
1751	 0.457099719787608
1752	 0.456940674807781
1753	 0.456809945876235
1754	 0.456672446937143
1755	 0.456569548023434
1756	 0.456448364527965
1757	 0.456306527451566
1758	 0.456189628602104
1759	 0.4561180548795
1760	 0.455995680154181
1761	 0.455792726597047
1762	 0.455586321270752
1763	 0.455351118042934
1764	 0.455118343961964
1765	 0.45499166123822
1766	 0.454917426088165
1767	 0.454778768420788
1768	 0.45462511368334
1769	 0.454484081904533
1770	 0.454341263404281
1771	 0.454250390398544
1772	 0.454180957065316
1773	 0.454155820119921
1774	 0.454079419433554
1775	 0.453874990191466
1776	 0.453702583539845
1777	 0.453508388625126
1778	 0.453318753513297
1779	 0.453220375010815
1780	 0.453170118495798
1781	 0.453098606888153
1782	 0.45304001636476
1783	 0.452967118715053
1784	 0.452878965495927
1785	 0.452804490225885
1786	 0.4527303508769
1787	 0.452664995483712
1788	 0.452602613876535
1789	 0.452567698911515
1790	 0.45256381903637
1791	 0.452530686998825
1792	 0.452477110473454
1793	 0.45243658176239
1794	 0.452429463283339
1795	 0.452434747363882
1796	 0.452472714565392
1797	 0.452454810321295
1798	 0.45242535998455
1799	 0.452388530115411
1800	 0.452407390282425
1801	 0.452453256677904
1802	 0.45240599125063
1803	 0.452351680174773
1804	 0.452277580333322
1805	 0.452241739353232
1806	 0.452292642083627
1807	 0.452356917010351
1808	 0.452420843450845
1809	 0.452377669267503
1810	 0.452289149530358
1811	 0.452227486799746
1812	 0.452165554488791
1813	 0.452166493163214
1814	 0.452132331349584
1815	 0.4520702223521
1816	 0.452050674628215
1817	 0.452069608065468
1818	 0.452081604356624
1819	 0.452019352765243
1820	 0.451885935495889
1821	 0.451784558465063
1822	 0.451728131598214
1823	 0.451734707683719
1824	 0.451807824123672
1825	 0.45182387297828
1826	 0.451792402852682
1827	 0.451745322987539
1828	 0.451573648215333
1829	 0.45142561370545
1830	 0.45140372252974
1831	 0.45153615517117
1832	 0.451575725940135
1833	 0.451565832425633
1834	 0.451531709389765
1835	 0.451472062621024
1836	 0.451405058719339
1837	 0.451247584487709
1838	 0.451195763607553
1839	 0.451198436689281
1840	 0.451173413715325
1841	 0.451153082888762
1842	 0.451099728171926
1843	 0.451064862488061
1844	 0.450976249101134
1845	 0.450891706899064
1846	 0.450912136629457
1847	 0.450817157188708
1848	 0.450624129288846
1849	 0.450446363396495
1850	 0.450269952048195
1851	 0.449937669950901
1852	 0.449594230298847
1853	 0.449334821705526
1854	 0.449020607589952
1855	 0.44868527882895
1856	 0.448336993652117
1857	 0.448033525906661
1858	 0.447544636005684
1859	 0.446959877428384
1860	 0.446413429736531
1861	 0.445661020765632
1862	 0.444870267919173
1863	 0.444060901106373
1864	 0.443174353266596
1865	 0.442159185532432
1866	 0.441038883530911
1867	 0.439832799976818
1868	 0.4385587248972
1869	 0.437061370790618
1870	 0.435477998619335
1871	 0.433826519703521
1872	 0.431961970270054
1873	 0.43001540998336
1874	 0.428066732448296
1875	 0.426016637823367
1876	 0.423913519551747
1877	 0.421670237270703
1878	 0.419220077390957
1879	 0.416596043190892
1880	 0.41382101979366
1881	 0.410825548921654
1882	 0.407674034963656
1883	 0.40428014486044
1884	 0.400657769205279
1885	 0.396875754965575
1886	 0.392846272449727
1887	 0.388671912125333
1888	 0.384326704822766
1889	 0.37981513373865
1890	 0.375090681100748
1891	 0.370254576600381
1892	 0.365209204747221
1893	 0.360163222181536
1894	 0.355190333953525
1895	 0.350233923815729
1896	 0.345426995861643
1897	 0.340739713051954
1898	 0.336095542442178
1899	 0.331616407490822
1900	 0.327462810710354
1901	 0.323555118740121
1902	 0.319932777595023
1903	 0.316680836875432
1904	 0.313710379415948
1905	 0.311087286930207
1906	 0.308793955501368
1907	 0.306743040956541
1908	 0.305140478347327
1909	 0.303813274053927
1910	 0.302636343434194
1911	 0.301765724565359
1912	 0.301222607654614
1913	 0.300785183781304
1914	 0.300557235766331
1915	 0.300614287821268
1916	 0.300699233656764
1917	 0.300887113963091
1918	 0.301140801441065
1919	 0.301553770098242
1920	 0.302034983828554
1921	 0.302544302206806
1922	 0.303157900805247
1923	 0.30375943657111
1924	 0.304321454571133
1925	 0.305006100709879
1926	 0.305749379799521
1927	 0.306425803054827
1928	 0.307189954148387
1929	 0.307909864778033
1930	 0.308570058629003
1931	 0.30926588559615
1932	 0.309967648249237
1933	 0.310696649529702
1934	 0.31144509547466
1935	 0.312233954689344
1936	 0.313035524419118
1937	 0.313804506605298
1938	 0.314502265071933
1939	 0.315182743840452
1940	 0.315942014813226
1941	 0.316667795843715
1942	 0.317418518963176
1943	 0.318203133408552
1944	 0.318880031033077
1945	 0.319636125970401
1946	 0.320461579034528
1947	 0.321219087779504
1948	 0.321950707681536
1949	 0.322760030323179
1950	 0.323481021450442
1951	 0.324211307914264
1952	 0.324971181028779
1953	 0.325742938517693
1954	 0.326538999410164
1955	 0.327362547401266
1956	 0.328175859629406
1957	 0.328882727615814
1958	 0.329661928005131
1959	 0.330435254876221
1960	 0.331249875214769
1961	 0.33208092097573
1962	 0.333021344793645
1963	 0.333935690927315
1964	 0.334730136594511
1965	 0.335588591823785
1966	 0.336520835359034
1967	 0.337413828047891
1968	 0.338425151495244
1969	 0.339424986867052
1970	 0.34046762916608
1971	 0.34140593067755
1972	 0.342360398407298
1973	 0.343236831138193
1974	 0.343958817397264
1975	 0.34481511912685
1976	 0.345751911759767
1977	 0.346673703321727
1978	 0.347629204316689
1979	 0.348577619708857
1980	 0.349498947200161
1981	 0.35036441244289
1982	 0.351322013378123
1983	 0.352389995889662
1984	 0.353391155970238
1985	 0.354415118690882
1986	 0.3554211331158
1987	 0.356431555471531
1988	 0.357329886175797
1989	 0.358287201601692
1990	 0.359220073208285
1991	 0.360140402464921
1992	 0.361082798175005
1993	 0.362109632709158
1994	 0.36313485742084
1995	 0.364134223885162
1996	 0.36520554445123
1997	 0.366181737316057
1998	 0.3670648387717
1999	 0.367989100274232
2000	 0.368883353025687
2001	 0.369785211146749
2002	 0.370776762649138
2003	 0.371726344903604
2004	 0.372742086123934
2005	 0.373692855217875
2006	 0.374558398667014
2007	 0.375382803276333
2008	 0.376256735482278
2009	 0.377106629640169
2010	 0.378024476905758
2011	 0.379065373157819
2012	 0.379973620764977
2013	 0.380817542424047
2014	 0.381682508231927
2015	 0.382543459953826
2016	 0.383293320366053
2017	 0.384077410992095
2018	 0.384863874140408
2019	 0.385549378477512
2020	 0.386351389925666
2021	 0.387081781064101
2022	 0.387837026231973
2023	 0.388511014090201
2024	 0.389078896079135
2025	 0.389707683078994
2026	 0.390359717314592
2027	 0.390967438085982
2028	 0.391567281288532
2029	 0.392154723135784
2030	 0.392737141140939
2031	 0.393354372488867
2032	 0.393958318921792
2033	 0.394601675255894
2034	 0.39519124231162
2035	 0.395733309375686
2036	 0.396291324215277
2037	 0.39687612857464
2038	 0.39739007665113
2039	 0.397841172414556
2040	 0.398335832023931
2041	 0.398812864005239
2042	 0.399298549205803
2043	 0.39982107359574
2044	 0.400322901915667
2045	 0.400755029584476
2046	 0.401135460792757
2047	 0.401583099628678
2048	 0.402039864724875
2049	 0.402551519378327
2050	 0.403058697096542
2051	 0.403524345053397
2052	 0.403951845603775
2053	 0.404385860718319
2054	 0.404775441775178
2055	 0.405228767975561
2056	 0.40574427992168
2057	 0.4061846814973
2058	 0.406628465605445
2059	 0.40702233889244
2060	 0.407443005673095
2061	 0.407857969437704
2062	 0.408285129958368
2063	 0.408777985913663
2064	 0.40915388724084
2065	 0.409536380785995
2066	 0.409958999628925
2067	 0.410412126285259
2068	 0.410824653592063
2069	 0.411272956622224
2070	 0.411667636993923
2071	 0.411972394147641
2072	 0.412362109788805
2073	 0.412799942582877
2074	 0.413188716757095
2075	 0.41358829778244
2076	 0.413959449836731
2077	 0.41439996780858
2078	 0.414828238909734
2079	 0.415126214332572
2080	 0.415450676376219
2081	 0.415766673836628
2082	 0.415943340811495
2083	 0.416241816364451
2084	 0.416642860366815
2085	 0.417024884143816
2086	 0.417459425468245
2087	 0.417782589199785
2088	 0.41810418871648
2089	 0.418391444269658
2090	 0.41853148625081
2091	 0.418757511123861
2092	 0.419072345466337
2093	 0.419279416513134
2094	 0.419460509060503
2095	 0.419691856692544
2096	 0.419977421714064
2097	 0.420296003794327
2098	 0.420647816758919
2099	 0.421149501925391
2100	 0.421485123323395
2101	 0.421769539365536
2102	 0.42201792254144
2103	 0.422132767473282
2104	 0.422369127351633
2105	 0.422686711842053
2106	 0.42292446487446
2107	 0.423159016585357
2108	 0.423383504517956
2109	 0.423522116304118
2110	 0.423706014829673
2111	 0.423931663695077
2112	 0.424176878281367
2113	 0.424533630840541
2114	 0.424844142640462
2115	 0.425183729766282
2116	 0.425650256717529
2117	 0.425962588196898
2118	 0.426106464657253
2119	 0.426413116078757
2120	 0.426792373723611
2121	 0.427070859471006
2122	 0.427427032152636
2123	 0.427719574899482
2124	 0.42780379074783
2125	 0.428013796033457
2126	 0.428327561696627
2127	 0.428606854115572
2128	 0.428818730652576
2129	 0.428991227650591
2130	 0.428985473962155
2131	 0.428947858450482
2132	 0.428953619283247
2133	 0.428948145446263
2134	 0.428927425395456
2135	 0.428955401805005
2136	 0.428857328608409
2137	 0.42864211193631
2138	 0.428504200946241
2139	 0.428375911240362
2140	 0.428189170374184
2141	 0.42803625304574
2142	 0.427772190805396
2143	 0.42738152012286
2144	 0.427011738061754
2145	 0.426643489355611
2146	 0.426227975533458
2147	 0.425780080636116
2148	 0.425317268999743
2149	 0.424715749804667
2150	 0.4240358048897
2151	 0.423419717153403
2152	 0.422697912281153
2153	 0.422092007214953
2154	 0.421586940338358
2155	 0.420996771013156
2156	 0.420387826194758
2157	 0.419814724797046
2158	 0.419255042774155
2159	 0.418654195354313
2160	 0.418074924436136
2161	 0.417446787331365
2162	 0.41672290026668
2163	 0.41606074945588
2164	 0.415386293931601
2165	 0.414789644531793
2166	 0.4141708673741
2167	 0.413669633125088
2168	 0.413314245369082
2169	 0.412961812985704
2170	 0.412569193879395
2171	 0.412192429358851
2172	 0.411651728824113
2173	 0.411072254880182
2174	 0.410554531272878
2175	 0.410038355336343
2176	 0.40954921566368
2177	 0.409116007849994
2178	 0.408615208343721
2179	 0.408118784874718
2180	 0.407571540890343
2181	 0.406971073388531
2182	 0.406366910570607
2183	 0.405732759802348
2184	 0.405092313930608
2185	 0.404421043708383
2186	 0.403778305520836
2187	 0.403126425173495
2188	 0.402477843102273
2189	 0.401909409279002
2190	 0.401225348010708
2191	 0.400497534667921
2192	 0.399704879438488
2193	 0.398737086688945
2194	 0.397829136291045
2195	 0.396972121925043
2196	 0.396083680590336
2197	 0.395191627478525
2198	 0.394372765995241
2199	 0.393436972822762
2200	 0.392475513907996
2201	 0.391374805275129
2202	 0.390110974914687
2203	 0.388950404662278
2204	 0.387577084677459
2205	 0.38655112355702
2206	 0.385645816388151
2207	 0.384969967027848
2208	 0.384472292290358
2209	 0.384215011497971
2210	 0.384204363785993
2211	 0.384382954495148
2212	 0.384871589839928
2213	 0.385392172573029
2214	 0.386129089561792
2215	 0.38684539245294
2216	 0.387700193917477
2217	 0.388500077230762
2218	 0.389134889539848
2219	 0.389781028464763
2220	 0.390138625134008
2221	 0.390401928144398
2222	 0.39065601358836
2223	 0.390779411245785
2224	 0.390994645126511
2225	 0.391254783638248
2226	 0.39137527699833
2227	 0.391478240104323
2228	 0.391508347436756
2229	 0.391382213015822
2230	 0.391318930086339
2231	 0.391315346838144
2232	 0.391198135377078
2233	 0.391007429441959
2234	 0.390809999770649
2235	 0.390495211545108
2236	 0.390278535507789
2237	 0.390100119116965
2238	 0.389895770931964
2239	 0.389721851140712
2240	 0.389531490784186
2241	 0.389304065103078
2242	 0.389141003002893
2243	 0.388971619317068
2244	 0.388882133608842
2245	 0.388890021410081
2246	 0.388873891176156
2247	 0.388763791676956
2248	 0.38866428992379
2249	 0.388624088528843
2250	 0.388550325162663
2251	 0.388494823798192
2252	 0.38851439474391
2253	 0.388531863559697
2254	 0.38843166371077
2255	 0.388520064219334
2256	 0.38873941406175
2257	 0.388889976653995
2258	 0.389082752282514
2259	 0.389227120965076
2260	 0.389354502620688
2261	 0.389446599443956
2262	 0.389484046364986
2263	 0.389517516646329
2264	 0.389577159815059
2265	 0.389524292232283
2266	 0.389418100586866
2267	 0.389291272871968
2268	 0.389034176656708
2269	 0.388861943313989
2270	 0.388720941444805
2271	 0.388561855180392
2272	 0.388472866115373
2273	 0.388231108858629
2274	 0.387982195181717
2275	 0.387584360249605
2276	 0.386943331547389
2277	 0.386464247256693
2278	 0.385995444372567
2279	 0.385464457479845
2280	 0.385007502384426
2281	 0.384437750346287
2282	 0.38380168155149
2283	 0.383026351204668
2284	 0.38217661092483
2285	 0.381330173503062
2286	 0.380401723379103
2287	 0.379443941249059
2288	 0.378813623846263
2289	 0.37824792978938
2290	 0.377611848065471
2291	 0.37721071806048
2292	 0.376842715356986
2293	 0.37635694571071
2294	 0.37610965013941
2295	 0.376105395420725
2296	 0.375920990295868
2297	 0.375846880372036
2298	 0.37573363683127
2299	 0.37522446277728
2300	 0.37459220019233
2301	 0.373917741982909
2302	 0.373215144895024
2303	 0.372389462375326
2304	 0.37159465912567
2305	 0.370852368363973
2306	 0.369966747656416
2307	 0.368848815320933
2308	 0.367994421186763
2309	 0.367195750472177
2310	 0.366453945322926
2311	 0.365825927721261
2312	 0.365399265568744
2313	 0.364999108996736
2314	 0.364775160396641
2315	 0.364740637224374
2316	 0.364921441043919
2317	 0.365258639814277
2318	 0.365714038327246
2319	 0.366563934487721
2320	 0.367218231319494
2321	 0.367952186599464
2322	 0.368575277848401
2323	 0.369067239935908
2324	 0.369525681311949
2325	 0.369947889850303
2326	 0.37027148613659
2327	 0.370705296482296
2328	 0.370814916892462
2329	 0.370558357646944
2330	 0.370463250327445
2331	 0.370172790795771
2332	 0.369972162458165
2333	 0.370070252837952
2334	 0.369792959917417
2335	 0.369167457759401
2336	 0.368753260792592
2337	 0.368214043594276
2338	 0.367799289357592
2339	 0.36768868349814
2340	 0.367341913143963
2341	 0.366856353299108
2342	 0.366402798365213
2343	 0.366078200130066
2344	 0.36566418253769
2345	 0.365317578815374
2346	 0.365028685404268
2347	 0.364393538825238
2348	 0.363795153999284
2349	 0.36333358314416
2350	 0.362705996425291
2351	 0.362236127167131
2352	 0.361800974035068
2353	 0.361291483123484
2354	 0.361061265839968
2355	 0.360826427720444
2356	 0.360621385474892
2357	 0.360386686186385
2358	 0.359785453748252
2359	 0.359188029550482
2360	 0.358662715369812
2361	 0.35813785326044
2362	 0.357631345626175
2363	 0.357217757315834
2364	 0.35667462191846
2365	 0.356217743302788
2366	 0.356084707518752
2367	 0.355520276133094
2368	 0.354824717757829
2369	 0.354285557595685
2370	 0.353481342693433
2371	 0.352828925006585
2372	 0.352368562106737
2373	 0.351668938138806
2374	 0.351098319050209
2375	 0.350810649492297
2376	 0.350321825862773
2377	 0.349662971421272
2378	 0.348773564123238
2379	 0.347604818781243
2380	 0.346826830791427
2381	 0.346448420594175
2382	 0.346055535938725
2383	 0.345788299221374
2384	 0.345230985836899
2385	 0.344261704532709
2386	 0.343577610384716
2387	 0.342951595326548
2388	 0.342470726462263
2389	 0.341975640811387
2390	 0.341207343576515
2391	 0.340741900263364
2392	 0.340339867478933
2393	 0.3401267372165
2394	 0.339914613433648
2395	 0.339429915202104
2396	 0.339086681251901
2397	 0.338665831828483
2398	 0.338490782783759
2399	 0.338403978415206
2400	 0.338078846086937
2401	 0.338200169230124
2402	 0.338069384265709
2403	 0.337709338616627
2404	 0.337632521218276
2405	 0.337202455781279
2406	 0.336884264823949
2407	 0.336727916053787
2408	 0.336340526238053
2409	 0.335683815710106
2410	 0.334674034591795
2411	 0.333667380791402
2412	 0.332993723624562
2413	 0.332429849063869
2414	 0.331675597763684
2415	 0.330749954975567
2416	 0.329822271774216
2417	 0.329259597134747
2418	 0.328891085726553
2419	 0.328452159541862
2420	 0.327771856748416
2421	 0.326623745406876
2422	 0.325400082370983
2423	 0.32548073844304
2424	 0.324813483464407
2425	 0.323703392753764
2426	 0.323058247097864
2427	 0.322048952165533
2428	 0.321380753460379
2429	 0.321593503004833
2430	 0.321035742004404
2431	 0.320020016659656
2432	 0.319151029049189
2433	 0.318259210971386
2434	 0.317115644596514
2435	 0.315337515827918
2436	 0.314723529257384
2437	 0.314819068252964
2438	 0.313722232910039
2439	 0.313445512425483
2440	 0.312937351197811
2441	 0.31173991366505
2442	 0.311317715480383
2443	 0.311041347038008
2444	 0.309946889681163
2445	 0.308833592650678
2446	 0.308138444062835
2447	 0.307160277046046
2448	 0.306279854943325
2449	 0.305051207793809
2450	 0.3035827570398
2451	 0.302589269311682
2452	 0.301607190700684
2453	 0.301239902134444
2454	 0.301139196259994
2455	 0.301011032371312
2456	 0.300966626330594
2457	 0.30038136454825
2458	 0.299164962896003
2459	 0.298475582784121
2460	 0.297988426827332
2461	 0.297161809722475
2462	 0.297461267955716
2463	 0.296862988262298
2464	 0.295326062923114
2465	 0.294851269556975
2466	 0.293523562776267
2467	 0.291691542220699
2468	 0.2906380353498
2469	 0.289554864711144
2470	 0.288929853907801
2471	 0.289152715384848
2472	 0.289201639677148
2473	 0.28918343494081
2474	 0.288856245684841
2475	 0.287662333508303
2476	 0.287309986191681
2477	 0.286916794046331
2478	 0.286322174114004
2479	 0.28580042825141
2480	 0.285443073093602
2481	 0.285549544190794
2482	 0.285407005134492
2483	 0.286039770046415
2484	 0.28613016436226
2485	 0.285013825583426
2486	 0.283932743142424
2487	 0.283332763301189
2488	 0.282159245602073
2489	 0.281383518281047
2490	 0.281371920917617
2491	 0.27994768511366
2492	 0.279095378274849
2493	 0.27912639106044
2494	 0.278576459125258
2495	 0.27942388232497
2496	 0.279957980321291
2497	 0.279264246878988
2498	 0.279702843019055
2499	 0.279440141660727
2500	 0.278937162968438
