Wavelength	signature0018.asd
350	 0.191687001356561
351	 0.19448623215569
352	 0.189000703876275
353	 0.185144618259611
354	 0.193028005758966
355	 0.188930199756733
356	 0.185535326233886
357	 0.185668566348384
358	 0.183858095078895
359	 0.186560812169606
360	 0.1911927691567
361	 0.193300155129577
362	 0.187995325270174
363	 0.189690237989879
364	 0.190577144199564
365	 0.185275223336795
366	 0.18572601037192
367	 0.184541911420463
368	 0.182546270148082
369	 0.182498820051723
370	 0.183121831434714
371	 0.186115223170544
372	 0.191214450799238
373	 0.195681236418645
374	 0.188365223335752
375	 0.183204305420181
376	 0.186169157610713
377	 0.190990648940334
378	 0.188339750380817
379	 0.186722572894842
380	 0.190884405648624
381	 0.190250263018616
382	 0.18816709301535
383	 0.187597354711301
384	 0.189785152909056
385	 0.189355274486532
386	 0.190339038475577
387	 0.191635515779261
388	 0.1899387070845
389	 0.190043957976671
390	 0.19022158093328
391	 0.190007543195774
392	 0.190928437323799
393	 0.192806582939424
394	 0.193294616851583
395	 0.191820209303333
396	 0.192194825916235
397	 0.192900543006276
398	 0.192603028370008
399	 0.190964754417512
400	 0.191199614146819
401	 0.192501202991523
402	 0.194135189147495
403	 0.195438267207539
404	 0.194968869285384
405	 0.193977649365048
406	 0.193438516252813
407	 0.193545761448403
408	 0.19394038813441
409	 0.193595378082752
410	 0.192526436512418
411	 0.19379368023996
412	 0.193248111884594
413	 0.192642540706029
414	 0.194709397944817
415	 0.194458418333524
416	 0.194562369172237
417	 0.195410996548168
418	 0.195271673710774
419	 0.195153437504138
420	 0.195328486511488
421	 0.195914803413924
422	 0.197083822082073
423	 0.196971504092004
424	 0.196524627637029
425	 0.196988067332771
426	 0.19755184544426
427	 0.197709037047067
428	 0.19771143582367
429	 0.198186096928463
430	 0.198762416277653
431	 0.199218335289937
432	 0.199382918192494
433	 0.199124617966342
434	 0.199530052780819
435	 0.200106562177183
436	 0.200302204610315
437	 0.20044842579818
438	 0.201420206328639
439	 0.202443896224669
440	 0.20229810591336
441	 0.202439223318671
442	 0.203012666191909
443	 0.20352512892125
444	 0.203024175265104
445	 0.203810822395843
446	 0.204595928565687
447	 0.204473415202303
448	 0.205276815302591
449	 0.205942100295567
450	 0.20621842023104
451	 0.206281947415522
452	 0.206812575195559
453	 0.207266985180323
454	 0.207695337039586
455	 0.208673825247245
456	 0.208885694938127
457	 0.208935120119161
458	 0.209289203952455
459	 0.209404450798628
460	 0.209303176646591
461	 0.209495940696811
462	 0.210336379685103
463	 0.210589696488962
464	 0.210630007585603
465	 0.210743080565929
466	 0.211044440244532
467	 0.211191452498438
468	 0.211493951055833
469	 0.212068749059856
470	 0.212488657316209
471	 0.21281941047365
472	 0.212888837979529
473	 0.212718307442449
474	 0.213446616259401
475	 0.213928907535762
476	 0.213858382151747
477	 0.21370441956311
478	 0.214224397513199
479	 0.214706706782934
480	 0.214790606251977
481	 0.215168952620564
482	 0.215275399242204
483	 0.215432466148629
484	 0.216000738096358
485	 0.21633272584194
486	 0.216536748887573
487	 0.216660442229108
488	 0.21671911765269
489	 0.217092156926455
490	 0.217522571567419
491	 0.217822851841051
492	 0.2181047009552
493	 0.218363469778239
494	 0.218633032772578
495	 0.218940486326553
496	 0.219251869737175
497	 0.219514463492592
498	 0.219754407513703
499	 0.22005716903553
500	 0.220473062542304
501	 0.220807240088046
502	 0.221004238710414
503	 0.22132710855482
504	 0.221704149007399
505	 0.222094017379875
506	 0.222431157478266
507	 0.222485607724253
508	 0.22282574982314
509	 0.223356926074533
510	 0.223468746028594
511	 0.223715221702488
512	 0.223929146937323
513	 0.224022349309168
514	 0.224295461165418
515	 0.224706550551827
516	 0.225022719255321
517	 0.225084146400482
518	 0.225500372249361
519	 0.225802809171583
520	 0.225927737695079
521	 0.226224791940617
522	 0.226602700998287
523	 0.226904102123786
524	 0.22706966100694
525	 0.227271371895156
526	 0.227652083004524
527	 0.228049011391012
528	 0.228245234004493
529	 0.228533030749751
530	 0.22891749794962
531	 0.229323759047911
532	 0.229623766424959
533	 0.22998343456181
534	 0.230369089805984
535	 0.230752935954576
536	 0.231258828834851
537	 0.231635751466647
538	 0.23193417939034
539	 0.232344729120151
540	 0.232908188650939
541	 0.233426752309793
542	 0.233893194229409
543	 0.234560178682903
544	 0.234920128618306
545	 0.235359680083675
546	 0.236206234272824
547	 0.236905314665972
548	 0.237622749967873
549	 0.238389791297485
550	 0.239174919400117
551	 0.240144068382349
552	 0.241100459066836
553	 0.241970121575443
554	 0.242939768377602
555	 0.243831543298114
556	 0.244767034597746
557	 0.245852038206614
558	 0.246764039530066
559	 0.247631428091311
560	 0.248567925549186
561	 0.249645735901454
562	 0.25066304314699
563	 0.251798744183083
564	 0.253117378007737
565	 0.254342644065074
566	 0.255686052881275
567	 0.257037153367211
568	 0.258242710245786
569	 0.259523979717861
570	 0.260776923576588
571	 0.26200797972219
572	 0.263344976808538
573	 0.264809811836736
574	 0.266385854390116
575	 0.268011778858904
576	 0.269522519319736
577	 0.27109725671885
578	 0.272650109347301
579	 0.274031046470742
580	 0.275497988780399
581	 0.277044708031423
582	 0.278554695624989
583	 0.279811325032669
584	 0.28111837653011
585	 0.2824047698438
586	 0.283534104248944
587	 0.28440813109917
588	 0.285519867165813
589	 0.286801560947289
590	 0.287902658072391
591	 0.289079715202048
592	 0.29014093004666
593	 0.291028810527868
594	 0.291934410700192
595	 0.292863615553568
596	 0.293701179189457
597	 0.294375850796996
598	 0.295161278941678
599	 0.295900258115755
600	 0.296524344530281
601	 0.297047345801384
602	 0.297638437335534
603	 0.29814670887916
604	 0.298536248597102
605	 0.299066647167205
606	 0.299548733627979
607	 0.300029548288521
608	 0.300568804161527
609	 0.300904002620896
610	 0.301305904316459
611	 0.301843481940776
612	 0.302371775681065
613	 0.302724196356055
614	 0.303056049840783
615	 0.303494430550869
616	 0.303968187263115
617	 0.304294614650646
618	 0.304614861386061
619	 0.305139276874128
620	 0.305572772895012
621	 0.305940617438382
622	 0.306343929676599
623	 0.306930001221477
624	 0.307364479223798
625	 0.307704219770218
626	 0.308075021010559
627	 0.308526133835199
628	 0.309074778070017
629	 0.309617881637739
630	 0.310022332855253
631	 0.310418782194913
632	 0.310977352819794
633	 0.311653450632385
634	 0.312117890810657
635	 0.312659982308781
636	 0.3132934845064
637	 0.313955199772025
638	 0.314580492373984
639	 0.315127740859335
640	 0.315698789605531
641	 0.316439814455542
642	 0.317020479251111
643	 0.31758699782794
644	 0.318240815835564
645	 0.318922460663032
646	 0.319480718030716
647	 0.320018077060053
648	 0.320642431459847
649	 0.321128937064488
650	 0.321719347052291
651	 0.32236215391481
652	 0.322811358287088
653	 0.323344565596269
654	 0.323947005125762
655	 0.324561667297762
656	 0.325135595754561
657	 0.325706086205057
658	 0.326270425165435
659	 0.326822328243796
660	 0.32738064719379
661	 0.328097834149382
662	 0.328885186449989
663	 0.329474131066974
664	 0.330176004425511
665	 0.331036678372153
666	 0.331949512861374
667	 0.332568159720621
668	 0.333294137990905
669	 0.3341085238691
670	 0.334875621252348
671	 0.335738838606451
672	 0.336537076701749
673	 0.337244302452375
674	 0.337977495873736
675	 0.338740928975093
676	 0.339472836273798
677	 0.340153419774485
678	 0.340889113264997
679	 0.341644659192701
680	 0.342379484987092
681	 0.343071744850751
682	 0.343836949010028
683	 0.344559394859994
684	 0.345227683665384
685	 0.345949167762781
686	 0.346709993841018
687	 0.34752274014005
688	 0.348361946137429
689	 0.349094048054317
690	 0.349877939365498
691	 0.35070853358235
692	 0.351526252119123
693	 0.352398129809013
694	 0.353249410679902
695	 0.354049172884841
696	 0.354823251659372
697	 0.355554297949569
698	 0.356332771796046
699	 0.357186022930397
700	 0.357945643572771
701	 0.358635085272828
702	 0.3593192289523
703	 0.360054168990549
704	 0.360701273621022
705	 0.361343642631591
706	 0.362008024747222
707	 0.36264871624365
708	 0.363315971591582
709	 0.363939630958066
710	 0.364502186825528
711	 0.365181599431339
712	 0.365740880518753
713	 0.366200552332495
714	 0.366692384301051
715	 0.36731878126783
716	 0.367941190492748
717	 0.368486894023541
718	 0.368971346374334
719	 0.369464846503759
720	 0.369951444880431
721	 0.370419260389882
722	 0.370906302524783
723	 0.371373855901934
724	 0.371820733556105
725	 0.372257398664241
726	 0.372679155011697
727	 0.373084008482008
728	 0.373523799908908
729	 0.374072312798647
730	 0.374437396990502
731	 0.374742642482389
732	 0.37508814508083
733	 0.375385504238099
734	 0.375707855555355
735	 0.376082637227873
736	 0.376490776252574
737	 0.376797963990255
738	 0.377046270268091
739	 0.377300401074974
740	 0.3776212115457
741	 0.377898424306567
742	 0.378222670204906
743	 0.378581826012429
744	 0.378763325621642
745	 0.378929893376444
746	 0.379157982493547
747	 0.379450865830564
748	 0.379659174681664
749	 0.379822425809828
750	 0.380011672603427
751	 0.380283256830201
752	 0.380454413896932
753	 0.380568293218372
754	 0.380696477731906
755	 0.380909372689622
756	 0.381087545692789
757	 0.381221553420537
758	 0.381337509119271
759	 0.381484026791932
760	 0.381633772247786
761	 0.381741714755279
762	 0.381777030350793
763	 0.381815758283974
764	 0.381876363950412
765	 0.381961019666064
766	 0.382058126637812
767	 0.3821561493262
768	 0.382181664938442
769	 0.382154771738086
770	 0.382272934334945
771	 0.382333694158259
772	 0.382369526294785
773	 0.382441004205634
774	 0.382454141963362
775	 0.382428403978943
776	 0.382416799699927
777	 0.38246660357825
778	 0.382447730974675
779	 0.382387327094942
780	 0.382355573616968
781	 0.382439335486679
782	 0.382392160415687
783	 0.382358750996545
784	 0.382439904891505
785	 0.382468267944853
786	 0.382377925399502
787	 0.382280315352575
788	 0.382297565177115
789	 0.382289145191334
790	 0.382244598198153
791	 0.382188221294775
792	 0.382157124608933
793	 0.382089899357433
794	 0.382025324880761
795	 0.381966367717053
796	 0.381861429557496
797	 0.381887099588089
798	 0.381838738882484
799	 0.381608917018433
800	 0.381527277803291
801	 0.381367374352768
802	 0.381247670859848
803	 0.381306340803102
804	 0.381229330761996
805	 0.381125189143235
806	 0.381032548269783
807	 0.380932433970924
808	 0.380808715255729
809	 0.380681704093746
810	 0.380569384493687
811	 0.380482477675779
812	 0.380503491296759
813	 0.380440656027341
814	 0.380222267256381
815	 0.380145825035207
816	 0.380077387512308
817	 0.380011964786319
818	 0.379964375530998
819	 0.379885798591465
820	 0.379777004071241
821	 0.379661226344903
822	 0.379565780940084
823	 0.37945629134201
824	 0.379347479538014
825	 0.379253817048033
826	 0.379180624739701
827	 0.379064522944774
828	 0.379038856413364
829	 0.379094176758466
830	 0.378956756342213
831	 0.378821952160466
832	 0.378731778681685
833	 0.378662982934607
834	 0.378515274661309
835	 0.378432795012736
836	 0.378416065681201
837	 0.37840215536719
838	 0.378328668428043
839	 0.378230219589361
840	 0.378105676280282
841	 0.377946660850196
842	 0.377858672410654
843	 0.377840878051281
844	 0.37782742783119
845	 0.377720695345724
846	 0.377718571320708
847	 0.377674284173217
848	 0.377554919309413
849	 0.377578302978496
850	 0.377547843051385
851	 0.377430871180186
852	 0.377294953158517
853	 0.377349287070965
854	 0.377388510909572
855	 0.377316630902938
856	 0.3771439977736
857	 0.377094218207999
858	 0.377140453271312
859	 0.377177364331282
860	 0.377110006087958
861	 0.37711607994093
862	 0.377166203606628
863	 0.377173150493332
864	 0.377050239788835
865	 0.376977616153763
866	 0.376963809477378
867	 0.376980815418841
868	 0.376985595598046
869	 0.376982079530004
870	 0.376980645508626
871	 0.376983569223002
872	 0.376978167116859
873	 0.37693565668064
874	 0.376951021159903
875	 0.377077958891602
876	 0.377232737903655
877	 0.377256956192698
878	 0.37720746192037
879	 0.377199719025257
880	 0.377303674936556
881	 0.377324444223716
882	 0.377339008410782
883	 0.377475968156797
884	 0.377613323882434
885	 0.377681215969529
886	 0.377700152247133
887	 0.377752123282749
888	 0.377958542551375
889	 0.378024887707832
890	 0.378000771691274
891	 0.378141030596802
892	 0.378226103832418
893	 0.378298769574353
894	 0.378366048249656
895	 0.378397953920575
896	 0.378492543454795
897	 0.378686345165396
898	 0.378877514283712
899	 0.378867954370045
900	 0.379088007173236
901	 0.379288918088831
902	 0.379355576870058
903	 0.379512199486664
904	 0.379909734386383
905	 0.380132775718707
906	 0.380055146777113
907	 0.380206752153802
908	 0.380397117511206
909	 0.38052951649982
910	 0.380644175754608
911	 0.381017458060261
912	 0.38119101216701
913	 0.381271403736791
914	 0.381445852521593
915	 0.381706756212887
916	 0.381820689000038
917	 0.38192470917281
918	 0.382167323071877
919	 0.382390080369057
920	 0.382630145485355
921	 0.382774776311704
922	 0.38281397889163
923	 0.383203739723955
924	 0.38351906035312
925	 0.383693119727435
926	 0.383811493494607
927	 0.383948773080248
928	 0.384243510244463
929	 0.384518449533741
930	 0.384601341360108
931	 0.384851192496671
932	 0.385109955074928
933	 0.385331105854118
934	 0.385517069668259
935	 0.385642621063832
936	 0.385794528547762
937	 0.386026120642436
938	 0.386295511123322
939	 0.386262471855477
940	 0.386411138091786
941	 0.386734860117208
942	 0.387031278486895
943	 0.387455401257851
944	 0.387573653756266
945	 0.387633046210044
946	 0.388014700373757
947	 0.388159250532563
948	 0.388381550718994
949	 0.388602174815361
950	 0.388708536548751
951	 0.389316138112691
952	 0.389573827353539
953	 0.389644280015716
954	 0.390025663467222
955	 0.390463738719339
956	 0.390829535962899
957	 0.391035811951844
958	 0.391166970813483
959	 0.391822844699515
960	 0.392085730325098
961	 0.392086567029092
962	 0.392329741885178
963	 0.392977271275435
964	 0.393185678972646
965	 0.393221119727426
966	 0.393540116483611
967	 0.393721745540199
968	 0.394422345634851
969	 0.395177624044075
970	 0.395508932631165
971	 0.395932836026898
972	 0.396579796563378
973	 0.397182523314859
974	 0.397557177014943
975	 0.398014781694695
976	 0.398627586482094
977	 0.399224798259488
978	 0.399627645400417
979	 0.39981126628658
980	 0.400416081612678
981	 0.400736601436041
982	 0.400669175148542
983	 0.401401198144937
984	 0.401772319359948
985	 0.402123693239312
986	 0.402694829788903
987	 0.403236884841746
988	 0.403718909283675
989	 0.403980739163911
990	 0.404251466356882
991	 0.404935493124499
992	 0.404550269634041
993	 0.404972834751855
994	 0.406153483359748
995	 0.406519254877441
996	 0.406770101202492
997	 0.407193576660856
998	 0.407720547185632
999	 0.408106711298978
1000	 0.408425709019354
1001	 0.412754028906043
1002	 0.413109689881785
1003	 0.413344232190042
1004	 0.413465838162066
1005	 0.413730839211866
1006	 0.414164462787442
1007	 0.414413919422322
1008	 0.414648311283529
1009	 0.414942305179927
1010	 0.415227522465798
1011	 0.415408557608016
1012	 0.415708511243745
1013	 0.416115825339695
1014	 0.416496478531086
1015	 0.416737643707831
1016	 0.417031359594131
1017	 0.417316516015439
1018	 0.417389121801966
1019	 0.41758078018411
1020	 0.417880097701865
1021	 0.418095360941263
1022	 0.418491627412705
1023	 0.418881695134234
1024	 0.419127190825741
1025	 0.419198700218709
1026	 0.419455066870065
1027	 0.419741528282249
1028	 0.419893510681637
1029	 0.420099590170558
1030	 0.420278680133852
1031	 0.420512146807566
1032	 0.420769483198832
1033	 0.421067670712607
1034	 0.421432145882276
1035	 0.421661700294592
1036	 0.421883315663952
1037	 0.422189802129069
1038	 0.422445337650022
1039	 0.422687939798323
1040	 0.422871477497597
1041	 0.423088967974531
1042	 0.423323080754534
1043	 0.423532150055413
1044	 0.423841006690204
1045	 0.424170825694848
1046	 0.424393364113078
1047	 0.424662225198428
1048	 0.424929208382919
1049	 0.425171100605532
1050	 0.425480781197123
1051	 0.42579845144284
1052	 0.426041923780694
1053	 0.426275560362196
1054	 0.426465140520508
1055	 0.426690014879516
1056	 0.42685819296113
1057	 0.427056750567262
1058	 0.427430239754363
1059	 0.42777555938253
1060	 0.428042403129911
1061	 0.428420343473417
1062	 0.428671730706054
1063	 0.428772065429023
1064	 0.429019049461806
1065	 0.429254479034434
1066	 0.429484234546377
1067	 0.429825828525121
1068	 0.430099796402602
1069	 0.430331423964933
1070	 0.430589581677203
1071	 0.430867374210601
1072	 0.431087707964752
1073	 0.431230978167496
1074	 0.431520456195208
1075	 0.43179185517282
1076	 0.431994429255749
1077	 0.432219441303589
1078	 0.432517903288434
1079	 0.432890823312717
1080	 0.433174331288613
1081	 0.433398733624242
1082	 0.433641124248475
1083	 0.43388041146591
1084	 0.434008971476573
1085	 0.434212795668968
1086	 0.434525283653361
1087	 0.434755558255857
1088	 0.434923320839972
1089	 0.435090311684773
1090	 0.435338740178767
1091	 0.435562443989147
1092	 0.435726663032048
1093	 0.435928527598379
1094	 0.436135380687951
1095	 0.436361185711907
1096	 0.436672611089165
1097	 0.436953762937468
1098	 0.437216444055876
1099	 0.43747794105399
1100	 0.437703572925442
1101	 0.437884687110554
1102	 0.438113101468421
1103	 0.438342998669174
1104	 0.438561278672242
1105	 0.438810180439192
1106	 0.439048667516956
1107	 0.439293044098134
1108	 0.439567126607561
1109	 0.439810964091256
1110	 0.440094238349499
1111	 0.440432522360387
1112	 0.440662977640831
1113	 0.44093383028267
1114	 0.441278008059713
1115	 0.441508978227833
1116	 0.44165719434899
1117	 0.441858164863692
1118	 0.441982808706055
1119	 0.442244366383384
1120	 0.442573804886355
1121	 0.442920144096444
1122	 0.443411166758102
1123	 0.443732601727191
1124	 0.443936164642921
1125	 0.444206301191024
1126	 0.444431693952248
1127	 0.444664522098962
1128	 0.444931795811054
1129	 0.445219149664587
1130	 0.445484439065237
1131	 0.445694384495149
1132	 0.445961477090698
1133	 0.446284654272376
1134	 0.446553595693733
1135	 0.446834602846301
1136	 0.44709935939481
1137	 0.447317915758979
1138	 0.447539430587742
1139	 0.447772633514087
1140	 0.447970621719231
1141	 0.448157095602086
1142	 0.448366160276735
1143	 0.448589879979133
1144	 0.44881879560461
1145	 0.448984361849417
1146	 0.449101799163181
1147	 0.449258860620891
1148	 0.449395781475557
1149	 0.449526705212629
1150	 0.449688609022445
1151	 0.449835802647928
1152	 0.449910400564978
1153	 0.450069876713741
1154	 0.45030655501695
1155	 0.450481740243044
1156	 0.45065182954867
1157	 0.450845385129593
1158	 0.450989372669682
1159	 0.451166243591001
1160	 0.451388562101129
1161	 0.451625886954727
1162	 0.451905767745078
1163	 0.452232575502931
1164	 0.452522837543935
1165	 0.45285696959435
1166	 0.453127762154079
1167	 0.453318647092248
1168	 0.45358524878666
1169	 0.453885942018445
1170	 0.454162586756803
1171	 0.454482307161652
1172	 0.454743249301833
1173	 0.454947164570545
1174	 0.455162494867975
1175	 0.455342181860558
1176	 0.455565951276005
1177	 0.455776276224542
1178	 0.455976762378333
1179	 0.456222674304939
1180	 0.456438889348791
1181	 0.456655631808558
1182	 0.456880849177021
1183	 0.457103455440009
1184	 0.45730639494794
1185	 0.457532712805794
1186	 0.45778318753325
1187	 0.458012999468121
1188	 0.458259571509452
1189	 0.458457843850276
1190	 0.458620209295545
1191	 0.458790013925288
1192	 0.458910953724514
1193	 0.459075111997104
1194	 0.459256667106438
1195	 0.459465864416516
1196	 0.45968344487715
1197	 0.459861669645537
1198	 0.460028145079583
1199	 0.460160020713646
1200	 0.46032990936963
1201	 0.460495527594899
1202	 0.460681567876895
1203	 0.46091053923212
1204	 0.461096133070797
1205	 0.46125046030561
1206	 0.461433858467877
1207	 0.461621125949459
1208	 0.461800478867404
1209	 0.462014401605116
1210	 0.462191068703689
1211	 0.462331031058001
1212	 0.462480664750792
1213	 0.462636400356117
1214	 0.462760532223016
1215	 0.462879864786947
1216	 0.46298721290909
1217	 0.463118004316813
1218	 0.46324634643485
1219	 0.463373290508783
1220	 0.463535763008226
1221	 0.463641080566283
1222	 0.463714425886315
1223	 0.463782347794972
1224	 0.463822995759966
1225	 0.463870948429868
1226	 0.463902650961645
1227	 0.463946404601681
1228	 0.463983531272688
1229	 0.464038491354399
1230	 0.464098668370542
1231	 0.464176668412206
1232	 0.464273243345444
1233	 0.46437630251982
1234	 0.464505917837308
1235	 0.464619737580916
1236	 0.464737349649935
1237	 0.464850209925502
1238	 0.46498849476926
1239	 0.465141930506767
1240	 0.46527706098953
1241	 0.465417810839358
1242	 0.465564022352483
1243	 0.465691770094951
1244	 0.465842468919321
1245	 0.466025271027642
1246	 0.466188859167492
1247	 0.46635420956892
1248	 0.466505854604862
1249	 0.466621655253973
1250	 0.466785003820034
1251	 0.466988348176272
1252	 0.467153241101625
1253	 0.46734640096026
1254	 0.46750517873517
1255	 0.467636288173202
1256	 0.467696680298874
1257	 0.467849844041719
1258	 0.468028987020334
1259	 0.468195429819463
1260	 0.468400446391078
1261	 0.468573075060463
1262	 0.468740496969671
1263	 0.468866614664997
1264	 0.468984564101407
1265	 0.469073140778579
1266	 0.46909831213762
1267	 0.469153401159392
1268	 0.469211587485576
1269	 0.469263971073373
1270	 0.469310772515573
1271	 0.469360626627472
1272	 0.469429162702479
1273	 0.469461811412819
1274	 0.469481447399617
1275	 0.469491072022053
1276	 0.469473210704889
1277	 0.469447252912506
1278	 0.469412195363567
1279	 0.469375963662685
1280	 0.469314579742781
1281	 0.469233476177257
1282	 0.469145261393407
1283	 0.469041958016292
1284	 0.468932915192032
1285	 0.468805112240344
1286	 0.468686221696202
1287	 0.46857667111884
1288	 0.468439428854297
1289	 0.468285251126314
1290	 0.468134440142217
1291	 0.467969972438058
1292	 0.467797561696287
1293	 0.467613560824028
1294	 0.467448622546254
1295	 0.467299817369978
1296	 0.46711625256156
1297	 0.466955041241732
1298	 0.466748721262228
1299	 0.466499658822058
1300	 0.466206011075343
1301	 0.46594148974491
1302	 0.46566642914991
1303	 0.465392223281502
1304	 0.465112505008019
1305	 0.46486170123247
1306	 0.464608063911657
1307	 0.464380289330451
1308	 0.464183353435951
1309	 0.463994363805191
1310	 0.463823270078307
1311	 0.463647320141823
1312	 0.463488555363052
1313	 0.46332727537316
1314	 0.46316038461659
1315	 0.463003593772303
1316	 0.462889925985685
1317	 0.462715854572693
1318	 0.462497473876001
1319	 0.462304615714324
1320	 0.462091308310051
1321	 0.46188167386797
1322	 0.461665531001884
1323	 0.461494057354631
1324	 0.461333941967108
1325	 0.461187894602378
1326	 0.461114644395402
1327	 0.460965829978409
1328	 0.46084370647213
1329	 0.460715364125786
1330	 0.460577132646357
1331	 0.460445926814953
1332	 0.460297722013893
1333	 0.460116977753112
1334	 0.459959785615739
1335	 0.459808744295428
1336	 0.459661290917117
1337	 0.459520807367099
1338	 0.459372469831715
1339	 0.459263442620635
1340	 0.459077152807836
1341	 0.458891648611287
1342	 0.458622422215324
1343	 0.458295243391453
1344	 0.457905548212762
1345	 0.457462613970109
1346	 0.456955182453212
1347	 0.456370987228463
1348	 0.455747247470774
1349	 0.455071687901059
1350	 0.454332292240174
1351	 0.453571454684109
1352	 0.452815636864066
1353	 0.452034724939723
1354	 0.451271290103699
1355	 0.450515932533586
1356	 0.449727605936385
1357	 0.44905607512974
1358	 0.448434463582376
1359	 0.4478404625706
1360	 0.447350560547651
1361	 0.446797800912714
1362	 0.446278221430201
1363	 0.445661130135398
1364	 0.445044413296493
1365	 0.444322705430997
1366	 0.443537383576739
1367	 0.442665872313997
1368	 0.441781532904141
1369	 0.44071168854504
1370	 0.439559822126403
1371	 0.438230895188113
1372	 0.43680507212706
1373	 0.435145992685816
1374	 0.433330938634167
1375	 0.431308841258919
1376	 0.429067615024375
1377	 0.426644825613596
1378	 0.423997318487987
1379	 0.421150003280947
1380	 0.418213404292485
1381	 0.41513634999501
1382	 0.412012684703226
1383	 0.408943936033666
1384	 0.405957704511332
1385	 0.402897247708907
1386	 0.40017494338486
1387	 0.39753335844504
1388	 0.395293762868538
1389	 0.393282645236511
1390	 0.391582055590922
1391	 0.390204301252289
1392	 0.389022392556115
1393	 0.38812322960455
1394	 0.38733867306071
1395	 0.38685830841129
1396	 0.386306298167784
1397	 0.385937638113762
1398	 0.385418601218118
1399	 0.384943160826557
1400	 0.384285227717706
1401	 0.383638467325818
1402	 0.382675298318573
1403	 0.381592029245483
1404	 0.380174350274081
1405	 0.378491966807222
1406	 0.376522403701851
1407	 0.374156625017571
1408	 0.37169262953585
1409	 0.369001650080249
1410	 0.366427297869696
1411	 0.364165988230003
1412	 0.362398375460968
1413	 0.361376509159002
1414	 0.361083390737455
1415	 0.361820846416897
1416	 0.363235173584324
1417	 0.365141162280415
1418	 0.368013824362346
1419	 0.37063110154758
1420	 0.373821013021493
1421	 0.37643641545478
1422	 0.37911912837417
1423	 0.381299173559395
1424	 0.383111792347729
1425	 0.384782819586257
1426	 0.386106740843518
1427	 0.387426714868931
1428	 0.388576132233784
1429	 0.389677261286571
1430	 0.390657672565192
1431	 0.391626856809122
1432	 0.392526630429092
1433	 0.393386178615858
1434	 0.39421217140931
1435	 0.394987225068122
1436	 0.395672419567663
1437	 0.396376889210773
1438	 0.397066724853837
1439	 0.397726469451258
1440	 0.398381153017731
1441	 0.398996929618309
1442	 0.399559369903481
1443	 0.400129800441284
1444	 0.400676129681793
1445	 0.401235266510565
1446	 0.401782079287548
1447	 0.402280577557848
1448	 0.402778804451817
1449	 0.403210229617536
1450	 0.403589900603229
1451	 0.403990856469592
1452	 0.404360711877509
1453	 0.404721770494879
1454	 0.405086341199614
1455	 0.405374305874592
1456	 0.405637533732092
1457	 0.40584273454671
1458	 0.406059440940281
1459	 0.406234609738702
1460	 0.406463001355215
1461	 0.406685930232144
1462	 0.406942202725175
1463	 0.407251908985555
1464	 0.407529055951083
1465	 0.407798616142657
1466	 0.408101098193793
1467	 0.408388345648892
1468	 0.408723819326954
1469	 0.409078789399859
1470	 0.409494592946205
1471	 0.409964574105337
1472	 0.410448947300883
1473	 0.410994447725155
1474	 0.411530048671817
1475	 0.412060952910765
1476	 0.412622567927116
1477	 0.413249162597961
1478	 0.413817655419038
1479	 0.414347134282584
1480	 0.414922303516322
1481	 0.415481248269538
1482	 0.41605855558495
1483	 0.416740030053199
1484	 0.41731661400429
1485	 0.417823771371063
1486	 0.418339328432719
1487	 0.418770112843908
1488	 0.419267780297548
1489	 0.419819812312201
1490	 0.420348867217466
1491	 0.420900912725578
1492	 0.421433764419646
1493	 0.421960402477722
1494	 0.422479534922237
1495	 0.422939034257995
1496	 0.423418544887851
1497	 0.42386941563721
1498	 0.424261052407454
1499	 0.424678879501006
1500	 0.425079913628054
1501	 0.425461031870925
1502	 0.42585866193304
1503	 0.426255374940174
1504	 0.426684357326975
1505	 0.42713571415554
1506	 0.427548846931461
1507	 0.427955050667813
1508	 0.428362235708637
1509	 0.428733614817248
1510	 0.429067659931177
1511	 0.429433987443349
1512	 0.429790192340892
1513	 0.43015721520955
1514	 0.430548572461879
1515	 0.430901412549937
1516	 0.431245591677128
1517	 0.431577505038792
1518	 0.431897741173018
1519	 0.432194169449707
1520	 0.432448285898449
1521	 0.43274301723973
1522	 0.433041915579261
1523	 0.433336059279484
1524	 0.433665739838641
1525	 0.433960507458735
1526	 0.434224066068949
1527	 0.434485590257604
1528	 0.434729917730545
1529	 0.434988306858914
1530	 0.4352511060231
1531	 0.435505262775704
1532	 0.435778564186785
1533	 0.43601632452022
1534	 0.436219972572754
1535	 0.436424485194464
1536	 0.436616191141175
1537	 0.436809231883259
1538	 0.436981158840068
1539	 0.437185617273979
1540	 0.437397320062199
1541	 0.437621705979273
1542	 0.437905960344277
1543	 0.438124230912897
1544	 0.438307397252445
1545	 0.438492482171993
1546	 0.438630314690927
1547	 0.438800759801136
1548	 0.439001206612094
1549	 0.439184449215637
1550	 0.439373857589678
1551	 0.439541788883312
1552	 0.439689068825855
1553	 0.43984504761256
1554	 0.439981532758924
1555	 0.440141531397896
1556	 0.440328798458573
1557	 0.44049315208681
1558	 0.440652509234679
1559	 0.440810452659367
1560	 0.440952717014667
1561	 0.441105118861714
1562	 0.441271184555035
1563	 0.441431792803349
1564	 0.441605082267432
1565	 0.441745895728297
1566	 0.441859998905151
1567	 0.441983774183722
1568	 0.442075647819762
1569	 0.442197287127778
1570	 0.44234901473498
1571	 0.442489256786145
1572	 0.442658974534111
1573	 0.442787500668742
1574	 0.442863436084691
1575	 0.442981999410892
1576	 0.443087928561631
1577	 0.443179942445259
1578	 0.443312619947995
1579	 0.443440635017805
1580	 0.443557704883079
1581	 0.443686513347248
1582	 0.443783847666844
1583	 0.443877757465661
1584	 0.44394702035341
1585	 0.444016888650105
1586	 0.444155704864244
1587	 0.444266270969127
1588	 0.444373034183513
1589	 0.44448619003898
1590	 0.444560232531369
1591	 0.444653931839123
1592	 0.44474612177216
1593	 0.444839056402212
1594	 0.444954465271637
1595	 0.445027011600297
1596	 0.445117471292211
1597	 0.445249815848844
1598	 0.445366508211818
1599	 0.445498705539472
1600	 0.445622324801904
1601	 0.445752209461642
1602	 0.445866303179916
1603	 0.445956431595916
1604	 0.446055236823707
1605	 0.446125407771844
1606	 0.446199675971363
1607	 0.446301847032758
1608	 0.446404370861263
1609	 0.446491511715117
1610	 0.44660684589592
1611	 0.446714980042758
1612	 0.446816180815238
1613	 0.446957993207415
1614	 0.447043434060678
1615	 0.44712872948762
1616	 0.447266322636137
1617	 0.447370909604656
1618	 0.447465923379586
1619	 0.44757938905252
1620	 0.447654165428711
1621	 0.447680848458483
1622	 0.44773629608743
1623	 0.447791387552418
1624	 0.447870630275188
1625	 0.447968792015716
1626	 0.448014475226993
1627	 0.448054009556801
1628	 0.448081805028934
1629	 0.448123617616451
1630	 0.448218093293907
1631	 0.448314290873041
1632	 0.448394838885374
1633	 0.448450681359491
1634	 0.448517577826024
1635	 0.448620780608286
1636	 0.448689428500516
1637	 0.448764715602419
1638	 0.448842188385183
1639	 0.448866849266674
1640	 0.448933477754845
1641	 0.449021765418874
1642	 0.449183856473219
1643	 0.449274080209143
1644	 0.449334716218009
1645	 0.44938622798048
1646	 0.44936687123664
1647	 0.449367651746098
1648	 0.449367480603238
1649	 0.449391710637915
1650	 0.44944548985946
1651	 0.449476846584897
1652	 0.449514249342902
1653	 0.449553110438441
1654	 0.449588472675892
1655	 0.449599330310559
1656	 0.449591951405326
1657	 0.449601274038281
1658	 0.449588843564576
1659	 0.449589173011302
1660	 0.449637938826319
1661	 0.449649901004072
1662	 0.449630881472999
1663	 0.449619806465504
1664	 0.449611654476066
1665	 0.449577624256621
1666	 0.449509833602291
1667	 0.449474069917912
1668	 0.449436149100283
1669	 0.449398433383146
1670	 0.449411531423245
1671	 0.449380900245721
1672	 0.449309528303564
1673	 0.44924409712107
1674	 0.449141292481074
1675	 0.449078696157352
1676	 0.449029617164755
1677	 0.448999792126689
1678	 0.4490210623948
1679	 0.449013110627629
1680	 0.449036311594155
1681	 0.448985507296754
1682	 0.448871043062113
1683	 0.448775251502316
1684	 0.448605624059661
1685	 0.448512426859448
1686	 0.448488936876387
1687	 0.448425229569845
1688	 0.448381941356396
1689	 0.44831758342882
1690	 0.448212684681347
1691	 0.448138394217778
1692	 0.448062956215775
1693	 0.448013938962048
1694	 0.447982437174373
1695	 0.447961573397522
1696	 0.447996668980609
1697	 0.447971406286697
1698	 0.4479385051831
1699	 0.447866768088907
1700	 0.447733857479006
1701	 0.447625443756556
1702	 0.447488076908894
1703	 0.447394236726377
1704	 0.447340960476142
1705	 0.447228480745873
1706	 0.447108061265137
1707	 0.447013245603395
1708	 0.446887980934864
1709	 0.446793935446856
1710	 0.446755073966632
1711	 0.446651501542021
1712	 0.446517383755224
1713	 0.446380041230528
1714	 0.446222198334391
1715	 0.446073126746348
1716	 0.445922355911977
1717	 0.445751589900238
1718	 0.44557262644116
1719	 0.445357459801795
1720	 0.44518755159476
1721	 0.445051530324679
1722	 0.444877159752638
1723	 0.444670855540955
1724	 0.44443429489728
1725	 0.444153154387245
1726	 0.443921199644089
1727	 0.44375996554834
1728	 0.443574649128317
1729	 0.443381154703411
1730	 0.443156712729252
1731	 0.442952303894865
1732	 0.442790995471311
1733	 0.442603962535624
1734	 0.442455014886819
1735	 0.442276496527157
1736	 0.442066257180257
1737	 0.441833474169872
1738	 0.441629509059257
1739	 0.441412441526008
1740	 0.44119531773736
1741	 0.441027768653533
1742	 0.440814732472383
1743	 0.440543451569169
1744	 0.440314813148583
1745	 0.440110714331274
1746	 0.439886202253777
1747	 0.439657401959191
1748	 0.439424414787237
1749	 0.439161132489897
1750	 0.438934392301012
1751	 0.438767090527204
1752	 0.438526779601373
1753	 0.438272790888144
1754	 0.437980991695092
1755	 0.437607249138139
1756	 0.437302370362689
1757	 0.437004813609863
1758	 0.436725441574245
1759	 0.4364792597979
1760	 0.436227564246069
1761	 0.435958721126298
1762	 0.435709433519443
1763	 0.43547943484215
1764	 0.435219421451104
1765	 0.434991699312406
1766	 0.434710981938021
1767	 0.43441110569429
1768	 0.43419309605011
1769	 0.43394605031254
1770	 0.433710802923424
1771	 0.433527652128706
1772	 0.433328103472785
1773	 0.433136866289839
1774	 0.432933405055087
1775	 0.432699197096612
1776	 0.432428609782425
1777	 0.43212411431174
1778	 0.431874612509508
1779	 0.431634446754506
1780	 0.431500436668157
1781	 0.431311389045894
1782	 0.431125062075033
1783	 0.430948812996802
1784	 0.430699378557071
1785	 0.43051954401621
1786	 0.430426525121015
1787	 0.430279185232234
1788	 0.430128258342707
1789	 0.429968865472471
1790	 0.429776021663698
1791	 0.429595477483909
1792	 0.429398558245974
1793	 0.429233289090071
1794	 0.429171630786548
1795	 0.429131131159222
1796	 0.429138214018347
1797	 0.429088154568746
1798	 0.428976369492091
1799	 0.428879749099969
1800	 0.428730938581877
1801	 0.428619162643641
1802	 0.428503680587694
1803	 0.428385493398113
1804	 0.428313158088535
1805	 0.428252360421815
1806	 0.428190481195378
1807	 0.428123415958832
1808	 0.428066165298057
1809	 0.427997167591609
1810	 0.427920618350536
1811	 0.427847569790736
1812	 0.427778300680512
1813	 0.427789825456009
1814	 0.427778192022596
1815	 0.427823579083793
1816	 0.427788745606605
1817	 0.427654814768012
1818	 0.427607649998862
1819	 0.427586540835452
1820	 0.427513614146798
1821	 0.427443741908893
1822	 0.427402629150232
1823	 0.427371253873414
1824	 0.427448400025637
1825	 0.427523090509196
1826	 0.42758664915144
1827	 0.42758148239734
1828	 0.427469654938869
1829	 0.427461315527031
1830	 0.427404049608034
1831	 0.429150152784661
1832	 0.429003137909269
1833	 0.428911686348108
1834	 0.428838881566927
1835	 0.428770689492468
1836	 0.428636058928477
1837	 0.428564181311335
1838	 0.428364530915535
1839	 0.427994110669518
1840	 0.427690590764617
1841	 0.427435213072503
1842	 0.427246824706822
1843	 0.427105462847566
1844	 0.427054281303457
1845	 0.426951721004562
1846	 0.426896289247598
1847	 0.426835371443407
1848	 0.426792106047515
1849	 0.426698754131424
1850	 0.426659545406626
1851	 0.426449734521027
1852	 0.426060992241795
1853	 0.425755916491449
1854	 0.425434418385449
1855	 0.425102428414277
1856	 0.424656294763091
1857	 0.424218805414823
1858	 0.423671585577793
1859	 0.423036012710202
1860	 0.422307413776769
1861	 0.421406215280289
1862	 0.420492398630096
1863	 0.419472834871935
1864	 0.418206525717257
1865	 0.416893429696895
1866	 0.41558930533354
1867	 0.413999966023029
1868	 0.412179680430005
1869	 0.410300772105371
1870	 0.408214299383417
1871	 0.406013313009576
1872	 0.40376413914689
1873	 0.401325850782954
1874	 0.398838890943281
1875	 0.396308067743052
1876	 0.393755934176752
1877	 0.391213493747628
1878	 0.388412609977356
1879	 0.385498037346523
1880	 0.382387760479392
1881	 0.379120481858758
1882	 0.375622790500973
1883	 0.37204019179728
1884	 0.368426924455789
1885	 0.364607584432547
1886	 0.360586128457009
1887	 0.356408094006963
1888	 0.35205196733383
1889	 0.347567910638032
1890	 0.342894161599224
1891	 0.338083192434316
1892	 0.333204233174673
1893	 0.328325333577064
1894	 0.323438643296086
1895	 0.318586940555373
1896	 0.313746592747907
1897	 0.30895008634668
1898	 0.304202980425069
1899	 0.299596839864588
1900	 0.295189733264816
1901	 0.290947016414193
1902	 0.28690538955677
1903	 0.283200245983497
1904	 0.279682279586752
1905	 0.276478149639941
1906	 0.273626423989534
1907	 0.271006930335976
1908	 0.26877670413629
1909	 0.266966163398173
1910	 0.265380983781626
1911	 0.264049763432654
1912	 0.263006392571454
1913	 0.262201048519271
1914	 0.261556090523814
1915	 0.261242392896938
1916	 0.261165614827877
1917	 0.261210764155194
1918	 0.26148625490574
1919	 0.261879030211295
1920	 0.262313294427511
1921	 0.262866961371382
1922	 0.263508605466338
1923	 0.264235095056806
1924	 0.265059729009757
1925	 0.265946499800464
1926	 0.266844294970313
1927	 0.267776893255559
1928	 0.268592804976425
1929	 0.269344736249831
1930	 0.270194409276919
1931	 0.270967620724519
1932	 0.271739380491715
1933	 0.272555131891888
1934	 0.27328833651749
1935	 0.273950648495306
1936	 0.274597876268171
1937	 0.275252513515841
1938	 0.275887096118014
1939	 0.276576836393097
1940	 0.277302350477784
1941	 0.277962912130623
1942	 0.2786683266096
1943	 0.27936583155144
1944	 0.279959054951734
1945	 0.280596085737496
1946	 0.281237854278998
1947	 0.28189291258008
1948	 0.282539736752874
1949	 0.283233973238763
1950	 0.283925958710869
1951	 0.284627609975069
1952	 0.285298023659963
1953	 0.28603213828212
1954	 0.286804466913083
1955	 0.287556555266535
1956	 0.288331315417194
1957	 0.289017325697225
1958	 0.289727940475642
1959	 0.290439184349168
1960	 0.291122936607342
1961	 0.291748685336185
1962	 0.292492480523444
1963	 0.293222329904329
1964	 0.293907105230932
1965	 0.29465845535784
1966	 0.295446066853631
1967	 0.29630274796501
1968	 0.297245873614615
1969	 0.29817448289785
1970	 0.299215367499054
1971	 0.300113749247231
1972	 0.300927101367694
1973	 0.301791948319013
1974	 0.302617756886167
1975	 0.303489442781576
1976	 0.304381330496328
1977	 0.305297398547058
1978	 0.306199492860922
1979	 0.307104277221506
1980	 0.308091439585479
1981	 0.309052150218411
1982	 0.309998402829619
1983	 0.310971940060734
1984	 0.311904751767532
1985	 0.312775163577298
1986	 0.313672292350346
1987	 0.314531613322804
1988	 0.315469869244254
1989	 0.316459094252666
1990	 0.3174155373059
1991	 0.318365671011569
1992	 0.319240641736828
1993	 0.320096102653438
1994	 0.320989250949881
1995	 0.321855069493278
1996	 0.322685945270048
1997	 0.323611347148458
1998	 0.324545316646425
1999	 0.32550647175539
2000	 0.326561178554984
2001	 0.327639989627019
2002	 0.328524401948449
2003	 0.329421894298074
2004	 0.330298909113944
2005	 0.331093522282942
2006	 0.332006848358366
2007	 0.332967806428408
2008	 0.333856203405677
2009	 0.33474022145362
2010	 0.335586792356143
2011	 0.336347138050394
2012	 0.337154689028753
2013	 0.337970682322833
2014	 0.338806829896062
2015	 0.339693486944227
2016	 0.340534837711176
2017	 0.341288094299994
2018	 0.342071981746583
2019	 0.342766826584245
2020	 0.343360083808911
2021	 0.344106067823153
2022	 0.344951101478188
2023	 0.345710686352642
2024	 0.346547164623562
2025	 0.347285802224567
2026	 0.347939911173256
2027	 0.348551246310131
2028	 0.349079870297485
2029	 0.34969346406594
2030	 0.350173684562913
2031	 0.350665094724008
2032	 0.351228768374383
2033	 0.351727653567365
2034	 0.352363317165606
2035	 0.353035263203023
2036	 0.353595747466954
2037	 0.354139833521623
2038	 0.354648921582666
2039	 0.355049391206677
2040	 0.355499128724495
2041	 0.355985652298744
2042	 0.35640301999236
2043	 0.356786898312836
2044	 0.357141514442055
2045	 0.35748800337326
2046	 0.357858631642323
2047	 0.35828385402272
2048	 0.358738853653783
2049	 0.35913307792819
2050	 0.359485475478487
2051	 0.359867805257922
2052	 0.360220217809997
2053	 0.360581107885475
2054	 0.360976423821163
2055	 0.361374237916461
2056	 0.361774155731162
2057	 0.362159058311439
2058	 0.362588427836475
2059	 0.362911354585867
2060	 0.363240003887726
2061	 0.363543057948368
2062	 0.363797497474575
2063	 0.364062070267298
2064	 0.364372768992461
2065	 0.364720416845152
2066	 0.36503434549722
2067	 0.36539721862548
2068	 0.365716855931621
2069	 0.365983821009436
2070	 0.366238463117725
2071	 0.366476890275437
2072	 0.36672199376301
2073	 0.36695919693453
2074	 0.367186920695349
2075	 0.36742587126526
2076	 0.367660859959381
2077	 0.367815387216873
2078	 0.367943217683885
2079	 0.368076243707661
2080	 0.368235806338026
2081	 0.368374115436384
2082	 0.368496489610044
2083	 0.368666211013651
2084	 0.368840847601734
2085	 0.369016554806005
2086	 0.369254567622741
2087	 0.36945347017693
2088	 0.369568430758861
2089	 0.369781599100855
2090	 0.370108334819932
2091	 0.370328178595182
2092	 0.37050563242929
2093	 0.370763710905359
2094	 0.370930181164285
2095	 0.371013269072355
2096	 0.371185712268572
2097	 0.371376664237285
2098	 0.371500209151362
2099	 0.371602115519742
2100	 0.371657178860725
2101	 0.371667284755822
2102	 0.371639449268094
2103	 0.371531366780045
2104	 0.371468326883703
2105	 0.371408681470318
2106	 0.371317478604016
2107	 0.371192290768505
2108	 0.371126913228938
2109	 0.371082834367352
2110	 0.370987931387133
2111	 0.370982245163042
2112	 0.371029042675258
2113	 0.37095243833486
2114	 0.370948178345273
2115	 0.370957323143212
2116	 0.370966781108419
2117	 0.370986595595329
2118	 0.371009173914131
2119	 0.371116348802039
2120	 0.371327074279309
2121	 0.371413062966506
2122	 0.371575418849685
2123	 0.371595423391192
2124	 0.371402661964912
2125	 0.371291440989945
2126	 0.371211897183384
2127	 0.371094550007589
2128	 0.37076004154394
2129	 0.370491670103779
2130	 0.370109136528722
2131	 0.36967875547165
2132	 0.369280746426284
2133	 0.36900353485234
2134	 0.368443248481191
2135	 0.367775310906641
2136	 0.367019111579592
2137	 0.36606619146003
2138	 0.365153647599403
2139	 0.364275864656476
2140	 0.36318713946419
2141	 0.362035445474693
2142	 0.360722126134254
2143	 0.359171396820894
2144	 0.357590884613683
2145	 0.355820577509067
2146	 0.354128478609575
2147	 0.352411670792823
2148	 0.350736329519778
2149	 0.348999657813244
2150	 0.347210475544322
2151	 0.345218507127705
2152	 0.343248405792697
2153	 0.341441233220581
2154	 0.339675717586086
2155	 0.337958355661102
2156	 0.336322672326603
2157	 0.334830530578675
2158	 0.333283191373139
2159	 0.332081822293992
2160	 0.331248770802958
2161	 0.330331410151809
2162	 0.329557646411633
2163	 0.328825814765238
2164	 0.328096033143833
2165	 0.327467349764343
2166	 0.326905463879949
2167	 0.326457782131837
2168	 0.326090380106807
2169	 0.325849696715731
2170	 0.325672147196722
2171	 0.325638614919899
2172	 0.325604240668608
2173	 0.325490524681415
2174	 0.325326900264513
2175	 0.325143496465741
2176	 0.324905256918755
2177	 0.324621526449775
2178	 0.324235800058333
2179	 0.323813373173636
2180	 0.323289687358331
2181	 0.322636017905571
2182	 0.32194938383582
2183	 0.321292023075843
2184	 0.320392323222215
2185	 0.319292905800779
2186	 0.318188293059413
2187	 0.316891974237713
2188	 0.315617232615843
2189	 0.314370119352709
2190	 0.313044911251314
2191	 0.311609322243241
2192	 0.310099306667982
2193	 0.308420339934607
2194	 0.306745163888833
2195	 0.304956640977311
2196	 0.30297653764249
2197	 0.300874444986783
2198	 0.298635495948109
2199	 0.296288440623466
2200	 0.293787071176752
2201	 0.291183584453121
2202	 0.288290552516367
2203	 0.285695052515843
2204	 0.282825682038786
2205	 0.280632349059147
2206	 0.278550031837237
2207	 0.277329196397614
2208	 0.276440961579391
2209	 0.276590726670833
2210	 0.277669234188538
2211	 0.279358408501826
2212	 0.282137255678937
2213	 0.285122566239857
2214	 0.288974736555978
2215	 0.292690422489813
2216	 0.296778928141646
2217	 0.300867583218782
2218	 0.30478993846286
2219	 0.308239255106921
2220	 0.311266814629686
2221	 0.313855115686179
2222	 0.316064434468794
2223	 0.3181185345314
2224	 0.31984094550463
2225	 0.321272279507276
2226	 0.322485645520251
2227	 0.323344623442478
2228	 0.324089915137241
2229	 0.324638998918176
2230	 0.325031224745938
2231	 0.325175460762556
2232	 0.325274202458882
2233	 0.325130644688555
2234	 0.325049004406362
2235	 0.324834759647628
2236	 0.324760576679957
2237	 0.324843883393788
2238	 0.324774189023341
2239	 0.324611792274349
2240	 0.324545005001608
2241	 0.324300304713503
2242	 0.32433512609617
2243	 0.324639467087877
2244	 0.324924847704652
2245	 0.325396980871578
2246	 0.325754736261248
2247	 0.326035701225798
2248	 0.326290564174137
2249	 0.326626965470902
2250	 0.326826914507494
2251	 0.326914169242478
2252	 0.327209244442003
2253	 0.327241005126009
2254	 0.327169624005507
2255	 0.32722392879164
2256	 0.327084346186532
2257	 0.327029632581312
2258	 0.326957706828606
2259	 0.326935540023188
2260	 0.326917502507718
2261	 0.326992078359173
2262	 0.327258527142683
2263	 0.327235208040682
2264	 0.32706188945296
2265	 0.326988874251628
2266	 0.32684814763898
2267	 0.32658733996569
2268	 0.326425979893218
2269	 0.326149827537146
2270	 0.325466633916814
2271	 0.325138941176834
2272	 0.3251218420728
2273	 0.324844309812747
2274	 0.324658636081178
2275	 0.324291052855575
2276	 0.323625827234185
2277	 0.323072647973729
2278	 0.322450054012596
2279	 0.321870706743168
2280	 0.321413839681208
2281	 0.320836105172171
2282	 0.320148542365199
2283	 0.31958131180984
2284	 0.319008576290785
2285	 0.318203513180269
2286	 0.317507025156334
2287	 0.316905113506113
2288	 0.316313345796477
2289	 0.315881649294133
2290	 0.315514395938592
2291	 0.315148720901479
2292	 0.314747014531841
2293	 0.314138149989271
2294	 0.313433956127824
2295	 0.312802665697754
2296	 0.312133573276729
2297	 0.311554837486082
2298	 0.311072485234139
2299	 0.310533196580616
2300	 0.310065293941773
2301	 0.309596936382559
2302	 0.308993312611297
2303	 0.308333941080926
2304	 0.307614590597248
2305	 0.306786445148468
2306	 0.305910831812685
2307	 0.304990520337764
2308	 0.304055174306562
2309	 0.302915484532662
2310	 0.302033673227198
2311	 0.301198431730223
2312	 0.300558644559602
2313	 0.300137184966949
2314	 0.299782892068597
2315	 0.299611170643968
2316	 0.299395698074941
2317	 0.299213593839199
2318	 0.29903998595298
2319	 0.298886687257293
2320	 0.298774368184759
2321	 0.298777595855383
2322	 0.298779913486327
2323	 0.298827545158493
2324	 0.298749863347133
2325	 0.298570485560544
2326	 0.298392507265314
2327	 0.298032129927254
2328	 0.297981171825338
2329	 0.298277520075992
2330	 0.298279856561952
2331	 0.298349892299206
2332	 0.298249361864944
2333	 0.297814207570926
2334	 0.297514031490347
2335	 0.297197234973598
2336	 0.296917422219837
2337	 0.296678665196536
2338	 0.296339195029147
2339	 0.295996086884628
2340	 0.295654745108243
2341	 0.295237936680164
2342	 0.294930522215562
2343	 0.294447287411793
2344	 0.293685380317011
2345	 0.292829838162872
2346	 0.291963418381014
2347	 0.291216075406887
2348	 0.290778551079113
2349	 0.290288954253308
2350	 0.289642299608563
2351	 0.289022494509067
2352	 0.288300519203684
2353	 0.287738627052911
2354	 0.287424437291074
2355	 0.287125789821853
2356	 0.286746881396622
2357	 0.286282078984052
2358	 0.285656164587331
2359	 0.285191763463749
2360	 0.285095222546841
2361	 0.28491130810782
2362	 0.284728727806302
2363	 0.284126062524721
2364	 0.283489687654737
2365	 0.283219756247053
2366	 0.282722306038648
2367	 0.282456223337323
2368	 0.281890064166441
2369	 0.280858853672733
2370	 0.280227360766073
2371	 0.279616389197118
2372	 0.27878807729707
2373	 0.278122505671332
2374	 0.277189206316307
2375	 0.276210914895632
2376	 0.27569781359489
2377	 0.275024121535208
2378	 0.27422185028838
2379	 0.273452034103225
2380	 0.272708624473052
2381	 0.27210703692535
2382	 0.271443394999804
2383	 0.271046070699632
2384	 0.270623241544815
2385	 0.270150814475742
2386	 0.270279343575459
2387	 0.270270801916834
2388	 0.27004075678747
2389	 0.2696633569565
2390	 0.269144277909752
2391	 0.268942748286584
2392	 0.268626779228176
2393	 0.268524419206065
2394	 0.268725171070108
2395	 0.268569462930481
2396	 0.268328267714949
2397	 0.268130395199318
2398	 0.2677864693756
2399	 0.267404141845511
2400	 0.267002010844934
2401	 0.266768448575177
2402	 0.2665359562172
2403	 0.266032949198239
2404	 0.265740405303805
2405	 0.265530230972903
2406	 0.265213565293031
2407	 0.265249949771717
2408	 0.265111838557508
2409	 0.26440163827459
2410	 0.263880250479334
2411	 0.263426584844158
2412	 0.262761386802282
2413	 0.262622907374956
2414	 0.262530372203684
2415	 0.261727037256069
2416	 0.260931812399446
2417	 0.259942340044113
2418	 0.258598293601449
2419	 0.257729130253779
2420	 0.256921097189058
2421	 0.256060516078157
2422	 0.255178677205648
2423	 0.254288663687744
2424	 0.253482690561694
2425	 0.252722592562091
2426	 0.251796629583223
2427	 0.250698214190872
2428	 0.249905197516466
2429	 0.249399098755768
2430	 0.248752183131748
2431	 0.248020260826295
2432	 0.247216701687888
2433	 0.24608196223617
2434	 0.24548823979068
2435	 0.245561748535459
2436	 0.24527700390314
2437	 0.245077720430817
2438	 0.24400204574925
2439	 0.243033439494053
2440	 0.2418877919296
2441	 0.240825623488451
2442	 0.240541878747107
2443	 0.239749174441704
2444	 0.238731714355933
2445	 0.238230918533507
2446	 0.237010003489841
2447	 0.23558857601462
2448	 0.234856165773898
2449	 0.23417435888503
2450	 0.233563399268934
2451	 0.233249153996589
2452	 0.233264510802938
2453	 0.232858901336607
2454	 0.232226730035427
2455	 0.232741028315036
2456	 0.232643069248341
2457	 0.231649945157593
2458	 0.230862785656394
2459	 0.22949738831587
2460	 0.22860466008423
2461	 0.228762286610406
2462	 0.228839325230367
2463	 0.228320299184537
2464	 0.227834650374758
2465	 0.227478699785951
2466	 0.226605875253535
2467	 0.226125582336269
2468	 0.225511442552187
2469	 0.223566233881575
2470	 0.222533428997627
2471	 0.222392850178599
2472	 0.221591068498458
2473	 0.221140079514136
2474	 0.220530247094176
2475	 0.220079605055714
2476	 0.219880189162279
2477	 0.219379273031182
2478	 0.219622538348003
2479	 0.218398978701592
2480	 0.217086736306478
2481	 0.215803666916872
2482	 0.214269736571387
2483	 0.213639017738857
2484	 0.213889455379115
2485	 0.213519975309094
2486	 0.21359710682018
2487	 0.213489223875538
2488	 0.212694412043679
2489	 0.212452840553844
2490	 0.211593534019026
2491	 0.210627249386166
2492	 0.210696237373046
2493	 0.210878880847732
2494	 0.21098455948719
2495	 0.211069530038417
2496	 0.210636560811614
2497	 0.209757347811286
2498	 0.209349801587437
2499	 0.208570937478889
2500	 0.207968004084458
