Wavelength	signature0004.asd
350	 8.60176161217526E-02
351	 0.103494806721441
352	 9.79237604501227E-02
353	 8.22128083031704E-02
354	 8.47811736236512E-02
355	 8.62565910881924E-02
356	 8.72215481600007E-02
357	 8.80131801783577E-02
358	 8.79885712018002E-02
359	 8.43412321139538E-02
360	 8.14014034339637E-02
361	 8.25691351149263E-02
362	 0.08873417819861
363	 9.37069179159663E-02
364	 9.25002669880448E-02
365	 8.65444141467444E-02
366	 0.090833872799159
367	 9.66044578041491E-02
368	 9.32849765801961E-02
369	 7.81710834361137E-02
370	 8.33523301580812E-02
371	 8.98276072636929E-02
372	 9.03679687386109E-02
373	 8.75040324349824E-02
374	 8.78394872065722E-02
375	 9.12188561541018E-02
376	 9.42862947107469E-02
377	 9.14999802947941E-02
378	 8.64666918060201E-02
379	 8.58099559556958E-02
380	 9.06906107054304E-02
381	 9.02809719952141E-02
382	 8.88802614896528E-02
383	 8.84750849315213E-02
384	 8.94418814691487E-02
385	 8.78702324898151E-02
386	 9.09134452234596E-02
387	 9.42409601543347E-02
388	 8.90096031667367E-02
389	 8.55751523894403E-02
390	 8.82087718638614E-02
391	 9.34864264496244E-02
392	 9.13124282577795E-02
393	 8.89785518550479E-02
394	 9.08699588500351E-02
395	 9.56598848643652E-02
396	 0.091192913973813
397	 8.94558222140036E-02
398	 9.09066599045549E-02
399	 9.21847520392634E-02
400	 9.06653936776941E-02
401	 8.94646511460355E-02
402	 9.10548188011983E-02
403	 9.59361703712429E-02
404	 9.38366226115766E-02
405	 9.14431814175854E-02
406	 9.19905456502656E-02
407	 9.20944261886143E-02
408	 0.091520954161231
409	 9.10456745211691E-02
410	 0.091529744631607
411	 9.37186953253071E-02
412	 9.36671848268167E-02
413	 9.29921077304286E-02
414	 0.094551869485751
415	 9.54215794929349E-02
416	 9.48938173486321E-02
417	 9.37896757302389E-02
418	 9.39326905679693E-02
419	 9.50539595782954E-02
420	 9.54480268202248E-02
421	 9.47896822911827E-02
422	 9.54484753687714E-02
423	 0.096078208342667
424	 9.63521190362217E-02
425	 9.63200323209751E-02
426	 9.62877127713908E-02
427	 9.65623163861822E-02
428	 9.64940508579926E-02
429	 9.53319780749745E-02
430	 9.67178674623881E-02
431	 9.74538921894243E-02
432	 9.64415437298945E-02
433	 9.62198229303908E-02
434	 9.73557485523953E-02
435	 9.83373146364837E-02
436	 9.79356199980393E-02
437	 9.70034322011375E-02
438	 9.80501177394248E-02
439	 9.95275022788379E-02
440	 9.86638799364039E-02
441	 9.86205265169317E-02
442	 9.97406520817452E-02
443	 0.101008937235703
444	 0.100369290391795
445	 0.100164262187185
446	 0.10045731203096
447	 0.100980963488064
448	 0.102030673525366
449	 0.101682765714329
450	 0.100958290105583
451	 0.101537544188242
452	 0.101501139031959
453	 0.101588222422951
454	 0.102246393980698
455	 0.103384840020363
456	 0.102880167010231
457	 0.102341712933951
458	 0.103024179526581
459	 0.104200051456872
460	 0.103834190661468
461	 0.103075889719025
462	 0.103731703780315
463	 0.10471709767336
464	 0.104419557268671
465	 0.10347409221961
466	 0.104193597840563
467	 0.104870421563243
468	 0.104969770709972
469	 0.104701902770467
470	 0.105332123151973
471	 0.106073530413547
472	 0.105994071802031
473	 0.104852584304282
474	 0.105569782083818
475	 0.105903568552318
476	 0.10563930119617
477	 0.106145009131993
478	 0.106159200205485
479	 0.106479741543469
480	 0.1072227975126
481	 0.106692728104413
482	 0.107037353430705
483	 0.107770871274341
484	 0.107873143272017
485	 0.107803186447664
486	 0.10795342505381
487	 0.108200453509298
488	 0.10808883009991
489	 0.108060829943738
490	 0.108589824201537
491	 0.109472361529217
492	 0.109287768263158
493	 0.109386409892712
494	 0.109896215369931
495	 0.110498028638564
496	 0.110786133871273
497	 0.110730285432057
498	 0.110783638154102
499	 0.111614748129133
500	 0.111952840619849
501	 0.112030480397792
502	 0.112224482528376
503	 0.112757912049973
504	 0.113112056206244
505	 0.113390459343847
506	 0.113805240228606
507	 0.114039347113675
508	 0.114275854150506
509	 0.114551903685529
510	 0.114787146913938
511	 0.115327343141723
512	 0.11563540622084
513	 0.115596492230047
514	 0.116267487406662
515	 0.116880499055595
516	 0.117092447468681
517	 0.116951028702949
518	 0.1176657945323
519	 0.118295661701083
520	 0.118548503144803
521	 0.118841814036032
522	 0.11923029582816
523	 0.119656809867301
524	 0.120006379583989
525	 0.120042280805437
526	 0.120413606154155
527	 0.121015613350903
528	 0.121459700511253
529	 0.121724626529084
530	 0.122018755255139
531	 0.122425454524364
532	 0.122871829921566
533	 0.123209430836111
534	 0.123594556308243
535	 0.124090892686355
536	 0.12432170142757
537	 0.124604879789456
538	 0.125049676676858
539	 0.125618814642454
540	 0.126067071613733
541	 0.126249197825898
542	 0.126408934759412
543	 0.127237507416705
544	 0.127576641974449
545	 0.127747076827525
546	 0.128223137108992
547	 0.128781425048615
548	 0.129214038785492
549	 0.129505988168123
550	 0.129795825441286
551	 0.130447016000252
552	 0.130929523089678
553	 0.131067058002337
554	 0.131395057403063
555	 0.13176456878285
556	 0.132106472791998
557	 0.132406340595925
558	 0.132791097304408
559	 0.133380060551066
560	 0.133959558906736
561	 0.134127643398361
562	 0.134424911546033
563	 0.134869893045079
564	 0.13535578644803
565	 0.135696199664612
566	 0.135996119827937
567	 0.136390244799094
568	 0.136915629390212
569	 0.13703923516569
570	 0.137268882464902
571	 0.137673241778654
572	 0.137866728477381
573	 0.138187995542965
574	 0.13864554399802
575	 0.139164803299317
576	 0.13963566652844
577	 0.140038447423969
578	 0.140414131640699
579	 0.140821838319449
580	 0.141227696694533
581	 0.141509323520959
582	 0.141739484172989
583	 0.142215860776896
584	 0.142755939955916
585	 0.143220688036714
586	 0.143580457793081
587	 0.144101146629867
588	 0.144627015703212
589	 0.14503009762643
590	 0.145252240469842
591	 0.145694561560475
592	 0.146067076906497
593	 0.146228525832925
594	 0.146353482049933
595	 0.146762558743793
596	 0.147197441405947
597	 0.147371936816507
598	 0.147587166612899
599	 0.147961257948977
600	 0.148330709244164
601	 0.148386142674901
602	 0.148618260475935
603	 0.149012375551738
604	 0.149449225257215
605	 0.149758758149385
606	 0.149994036266827
607	 0.150323180986014
608	 0.15082579007667
609	 0.15096037830701
610	 0.151108108209324
611	 0.15146152445178
612	 0.151971672246473
613	 0.152127042749997
614	 0.152262717227111
615	 0.152650406516382
616	 0.153062044789929
617	 0.153304831451634
618	 0.153521756349034
619	 0.153930209770596
620	 0.154206901729035
621	 0.154390108664847
622	 0.154594825291261
623	 0.154982135679301
624	 0.155422095536978
625	 0.155694627210286
626	 0.155770849583354
627	 0.156202158701359
628	 0.156664225957153
629	 0.156976122243728
630	 0.157102566729878
631	 0.157510150599322
632	 0.15793207643249
633	 0.158196568947103
634	 0.158357707600534
635	 0.158778322134283
636	 0.159247862988249
637	 0.159522814537494
638	 0.159778238558916
639	 0.160200681061843
640	 0.160684259908353
641	 0.160965214763206
642	 0.161195857333311
643	 0.161591638596091
644	 0.162121671398549
645	 0.162356274825725
646	 0.162517491934072
647	 0.162845686535809
648	 0.163422932465687
649	 0.163682803818465
650	 0.163936427509485
651	 0.164296936980718
652	 0.164704144696179
653	 0.165107224707757
654	 0.165442648948377
655	 0.165724829140205
656	 0.166118063516063
657	 0.166406980463352
658	 0.166650703315722
659	 0.166982083572641
660	 0.167425183895998
661	 0.167764033615921
662	 0.168051170766927
663	 0.168552056698073
664	 0.168978738838811
665	 0.169300607763301
666	 0.169574735096233
667	 0.169932158133897
668	 0.170481684693047
669	 0.170945133105004
670	 0.171056894371329
671	 0.171439354602902
672	 0.171900429144379
673	 0.172298625941901
674	 0.172597522976631
675	 0.172954420240666
676	 0.173367695261855
677	 0.1737582888185
678	 0.173910453062063
679	 0.174252078408385
680	 0.174689301540003
681	 0.174974289984336
682	 0.175316783162836
683	 0.17566365796261
684	 0.176006690738287
685	 0.176393333216701
686	 0.176686517895733
687	 0.1770046083074
688	 0.177414527497681
689	 0.177733583106211
690	 0.178009059516461
691	 0.178327981299655
692	 0.178762544882085
693	 0.179171719572294
694	 0.179561097612989
695	 0.179945690206077
696	 0.180334923879539
697	 0.180594790355062
698	 0.180820189822436
699	 0.18112487087807
700	 0.181569648029068
701	 0.181907919256456
702	 0.18217853529623
703	 0.182512462451516
704	 0.182766464048805
705	 0.183039360653738
706	 0.183348710463927
707	 0.183618061058042
708	 0.184010347792307
709	 0.184302719612802
710	 0.184420282997041
711	 0.184836764133636
712	 0.185188835304885
713	 0.185415639999875
714	 0.185593354249368
715	 0.185817326744943
716	 0.186164161977304
717	 0.186544086034582
718	 0.186731606645775
719	 0.186981921044895
720	 0.187294518463699
721	 0.187612064605098
722	 0.187858021999593
723	 0.188099975171924
724	 0.188348829170144
725	 0.188596978888803
726	 0.188850591820761
727	 0.189125623857212
728	 0.189404035423655
729	 0.189640568308883
730	 0.189834091383405
731	 0.190044115590104
732	 0.190299893062871
733	 0.190557619931559
734	 0.19077298691716
735	 0.190991817018958
736	 0.191260180553193
737	 0.191484853576681
738	 0.191659170718771
739	 0.191856402940037
740	 0.192174923827294
741	 0.192367088671726
742	 0.192529691264364
743	 0.192760808046821
744	 0.193086958211637
745	 0.193293384635655
746	 0.19343560030499
747	 0.193630193279725
748	 0.193921347732264
749	 0.194146086050618
750	 0.194308355263812
751	 0.194507008120175
752	 0.194746928929018
753	 0.194939106901033
754	 0.195085000119751
755	 0.195303760554472
756	 0.195593925923278
757	 0.195834764892272
758	 0.195957984526315
759	 0.196083510017154
760	 0.196304943256603
761	 0.196542310823816
762	 0.196671941095185
763	 0.196769713889761
764	 0.196970474467425
765	 0.197210509595001
766	 0.197280866432662
767	 0.19748105301464
768	 0.197692668564531
769	 0.197835356159727
770	 0.198011435076907
771	 0.198202701017432
772	 0.198378611976625
773	 0.198507310577785
774	 0.198552412375184
775	 0.198744436712624
776	 0.199027426382493
777	 0.19919157872312
778	 0.199249706030794
779	 0.19935567277181
780	 0.19955851128775
781	 0.199768030499847
782	 0.199912742536815
783	 0.200035230201829
784	 0.200184128703013
785	 0.200372315650644
786	 0.200434119233283
787	 0.200527675436186
788	 0.200817059426686
789	 0.200984899589516
790	 0.2010397797107
791	 0.201137644067289
792	 0.201459641725516
793	 0.201577167000136
794	 0.201607449192716
795	 0.201668365693631
796	 0.201791562263902
797	 0.201984895143046
798	 0.202112896167108
799	 0.202136404484121
800	 0.202325403447655
801	 0.202454892947889
802	 0.202500722880798
803	 0.202540879907626
804	 0.202771916146734
805	 0.202852373931722
806	 0.202848992162622
807	 0.203059870887748
808	 0.2031628165853
809	 0.203224654679139
810	 0.203316032471971
811	 0.203457274261252
812	 0.203620463690806
813	 0.20370444074456
814	 0.203697187331243
815	 0.203791737275148
816	 0.204044354976293
817	 0.204247516433981
818	 0.204226207006318
819	 0.204262832963873
820	 0.204436250849434
821	 0.204594818410891
822	 0.204535381008759
823	 0.204611602344894
824	 0.204766990990813
825	 0.204930868768095
826	 0.205053188488614
827	 0.205087452552227
828	 0.205181056314586
829	 0.205353066099238
830	 0.205376647856002
831	 0.20542831348818
832	 0.205535108833703
833	 0.205650761042303
834	 0.205624654634537
835	 0.205705147526939
836	 0.2058459110132
837	 0.205909229727394
838	 0.205887790492016
839	 0.206013605726108
840	 0.206170883769825
841	 0.206093726965056
842	 0.206131133407033
843	 0.206268965843552
844	 0.206407345302316
845	 0.206414745721673
846	 0.206423045303064
847	 0.206509934617627
848	 0.206657136767012
849	 0.206721141363742
850	 0.206696359303168
851	 0.206767180556461
852	 0.206984426700085
853	 0.206966720319139
854	 0.206988864136099
855	 0.207087563074357
856	 0.207191138945975
857	 0.207126022492994
858	 0.207191779104096
859	 0.207340172671569
860	 0.207387823219404
861	 0.207481328920422
862	 0.207611218548727
863	 0.207738543382063
864	 0.207808554296124
865	 0.207768882018691
866	 0.207752694107774
867	 0.207851620869233
868	 0.208058686882102
869	 0.208003853622397
870	 0.207964300265778
871	 0.208107679847858
872	 0.208261761550919
873	 0.208204847673608
874	 0.208227341695156
875	 0.208481542496543
876	 0.208567746858348
877	 0.20865193456232
878	 0.208698136952663
879	 0.20866982271797
880	 0.208687903138628
881	 0.208687475362068
882	 0.208742670716469
883	 0.208909413082971
884	 0.208977192071296
885	 0.208911763784929
886	 0.208873681426901
887	 0.209040829590243
888	 0.209130962106947
889	 0.20915072452868
890	 0.209158008795409
891	 0.209224983981114
892	 0.209328182979037
893	 0.209431703781846
894	 0.20954185637429
895	 0.209672416030779
896	 0.20949341890698
897	 0.209452310668622
898	 0.209677121973225
899	 0.209824380195534
900	 0.209746060948304
901	 0.2096260824145
902	 0.209656787435385
903	 0.209922567023682
904	 0.210070361729879
905	 0.210068141361267
906	 0.210070509966872
907	 0.210391269694047
908	 0.210344932443547
909	 0.210140877205109
910	 0.21011999904118
911	 0.21042296995311
912	 0.210414768640926
913	 0.210315193051889
914	 0.210455173201261
915	 0.210854748864985
916	 0.210706454873841
917	 0.210521343538032
918	 0.210848788023711
919	 0.211184618673067
920	 0.210999883507226
921	 0.210725548675307
922	 0.210899346260326
923	 0.211268555101869
924	 0.211260456586278
925	 0.211121340340158
926	 0.211242842905707
927	 0.211311683549173
928	 0.211283811406489
929	 0.211298856477431
930	 0.211486923140703
931	 0.211660240141832
932	 0.211569372136847
933	 0.211533949220426
934	 0.211888947589636
935	 0.212012921711832
936	 0.211796400625916
937	 0.21168779691457
938	 0.212059561558878
939	 0.211899368464224
940	 0.211638608589107
941	 0.211714046785922
942	 0.212256466268156
943	 0.21232092634708
944	 0.212043865727124
945	 0.211936321863136
946	 0.21234338654787
947	 0.212230730123462
948	 0.21219064428008
949	 0.212223309059134
950	 0.212137567792335
951	 0.212271738489516
952	 0.212306682694157
953	 0.212453515281461
954	 0.212877840733409
955	 0.212549273611439
956	 0.212468884585313
957	 0.212679851700376
958	 0.212807675367132
959	 0.212746977392993
960	 0.212595853106843
961	 0.212673013831758
962	 0.213048393286347
963	 0.212664509927816
964	 0.212718047088007
965	 0.213108224903114
966	 0.21328990994941
967	 0.212968913007285
968	 0.2130995797096
969	 0.213432122853396
970	 0.213475556499934
971	 0.21328704455756
972	 0.213236109250416
973	 0.213464018103962
974	 0.21378514514041
975	 0.213533750059928
976	 0.213387099634884
977	 0.213922456714027
978	 0.214773383093976
979	 0.214079012546942
980	 0.213792190860765
981	 0.214154904418154
982	 0.214615686096541
983	 0.214211684575283
984	 0.214586602943871
985	 0.21469160083033
986	 0.214198092928453
987	 0.214257988021932
988	 0.214851011742575
989	 0.214647359129835
990	 0.213927884178095
991	 0.214450157832969
992	 0.214832664917929
993	 0.215032839761975
994	 0.214778185375834
995	 0.213979582305978
996	 0.215071106812321
997	 0.216018262058724
998	 0.215914358766254
999	 0.215208788391134
1000	 0.215835460547043
1001	 0.207542786902678
1002	 0.207831663452126
1003	 0.207929371450211
1004	 0.207912520483756
1005	 0.208045892057135
1006	 0.208172502965095
1007	 0.20815269079852
1008	 0.20824308868812
1009	 0.208377500050343
1010	 0.208590533850053
1011	 0.208697488187427
1012	 0.208864667015188
1013	 0.208943161706835
1014	 0.208899414636309
1015	 0.208912440488332
1016	 0.208969334579839
1017	 0.209122778342866
1018	 0.209309561492838
1019	 0.209420566039589
1020	 0.209408914092715
1021	 0.20933832759829
1022	 0.209259463857366
1023	 0.209265214176474
1024	 0.20933643170862
1025	 0.209506517458216
1026	 0.209708427223845
1027	 0.209910397949486
1028	 0.210027369763066
1029	 0.210108407193392
1030	 0.210102512558384
1031	 0.210134070785455
1032	 0.210307575179149
1033	 0.210487140200564
1034	 0.210663271480466
1035	 0.210777663506743
1036	 0.210755305168831
1037	 0.210775753425785
1038	 0.210835975984154
1039	 0.210948453422628
1040	 0.210973008682225
1041	 0.211026819175167
1042	 0.211078784623565
1043	 0.211075642204381
1044	 0.211189385875462
1045	 0.211352490650888
1046	 0.211427251339924
1047	 0.211409691950365
1048	 0.211466532825631
1049	 0.21158578895568
1050	 0.211712529875339
1051	 0.211962126809322
1052	 0.212174639546733
1053	 0.212313903297827
1054	 0.21238083442507
1055	 0.21246603677401
1056	 0.212524845259855
1057	 0.212611086026992
1058	 0.212724122782511
1059	 0.21284708458373
1060	 0.212988155375849
1061	 0.213073569772531
1062	 0.213173128925379
1063	 0.213376868939892
1064	 0.213540043067752
1065	 0.213662044403041
1066	 0.213808380410074
1067	 0.213838399226097
1068	 0.213954410978333
1069	 0.214130573607884
1070	 0.214284071840627
1071	 0.214451239809485
1072	 0.214649061217262
1073	 0.214737190176762
1074	 0.214873622887438
1075	 0.215087024273734
1076	 0.215206831333435
1077	 0.215392755435639
1078	 0.215561664805642
1079	 0.215655379026619
1080	 0.215761040937747
1081	 0.215940819618426
1082	 0.216271706182286
1083	 0.216346348218672
1084	 0.21619562004979
1085	 0.216238048325537
1086	 0.216178855671964
1087	 0.21619742810012
1088	 0.21633402895973
1089	 0.21664152122466
1090	 0.216714110989581
1091	 0.216822832106466
1092	 0.21688370760125
1093	 0.216971063434595
1094	 0.217119989458773
1095	 0.217174586628863
1096	 0.217299094470021
1097	 0.217412625575148
1098	 0.217511071520791
1099	 0.217642224339669
1100	 0.217715186481166
1101	 0.217704125971617
1102	 0.217783586868469
1103	 0.217910628082144
1104	 0.217953997112703
1105	 0.218026685838227
1106	 0.218173305444558
1107	 0.218261754093518
1108	 0.218305739023201
1109	 0.21839329888131
1110	 0.218420974182097
1111	 0.218412452904789
1112	 0.218472981371066
1113	 0.218538707265009
1114	 0.218647251922086
1115	 0.218721641717187
1116	 0.218797735596925
1117	 0.218847843220495
1118	 0.218875626882147
1119	 0.218882529413648
1120	 0.21884737834476
1121	 0.218874523568363
1122	 0.218897122182779
1123	 0.218899565111281
1124	 0.21895219858633
1125	 0.219071510974245
1126	 0.219138803798919
1127	 0.219146826994119
1128	 0.219140565868931
1129	 0.219097297033009
1130	 0.219147159551751
1131	 0.219278614296801
1132	 0.219349802615511
1133	 0.219468660275945
1134	 0.219523058028083
1135	 0.219487477722026
1136	 0.219482755617039
1137	 0.21948613308612
1138	 0.219505881519692
1139	 0.21953599304222
1140	 0.219540131582595
1141	 0.219579275985444
1142	 0.219561621129873
1143	 0.219529760317099
1144	 0.219575093969584
1145	 0.219600355769482
1146	 0.219643529775319
1147	 0.219676165390667
1148	 0.219728616363981
1149	 0.219722943552381
1150	 0.219671973550926
1151	 0.21966688051882
1152	 0.219625833682627
1153	 0.219636638612773
1154	 0.219719718374461
1155	 0.219770671368397
1156	 0.219820763996898
1157	 0.219859025063693
1158	 0.219921193413633
1159	 0.220005770787939
1160	 0.220071026588499
1161	 0.220137706220016
1162	 0.220199094249372
1163	 0.220224183091587
1164	 0.22029077192291
1165	 0.220384408799609
1166	 0.220480726937043
1167	 0.220601039245164
1168	 0.220692183637294
1169	 0.220802821329186
1170	 0.220861528091828
1171	 0.22082704936842
1172	 0.220888786427893
1173	 0.220966635756117
1174	 0.221065360499817
1175	 0.221224011575418
1176	 0.221406276950673
1177	 0.221549689959054
1178	 0.221624753845281
1179	 0.221670981263595
1180	 0.221737105072811
1181	 0.221791313200979
1182	 0.22180917144983
1183	 0.221887753702943
1184	 0.222009683668454
1185	 0.222087876307315
1186	 0.222185348234916
1187	 0.222261883968849
1188	 0.222292084317744
1189	 0.222343394479244
1190	 0.222430978594303
1191	 0.222473712039083
1192	 0.222463467333929
1193	 0.222499185982648
1194	 0.222546886020121
1195	 0.222567487354838
1196	 0.222656701565638
1197	 0.222752959485784
1198	 0.222832079601365
1199	 0.222915056116746
1200	 0.222980884163842
1201	 0.223030526760886
1202	 0.223094224024346
1203	 0.223159405749915
1204	 0.223210721860092
1205	 0.223245243170575
1206	 0.223309695351214
1207	 0.223378347256989
1208	 0.223449071358466
1209	 0.223581343164021
1210	 0.223644381729086
1211	 0.223639088286153
1212	 0.223672664062163
1213	 0.223710767818611
1214	 0.22372262323676
1215	 0.223742650034503
1216	 0.223774862984303
1217	 0.22381051677665
1218	 0.223820060278704
1219	 0.223867986227362
1220	 0.223964773563298
1221	 0.224018402862073
1222	 0.224062488727077
1223	 0.224102977424441
1224	 0.224116302162844
1225	 0.224159856486141
1226	 0.224229878215186
1227	 0.224270216409436
1228	 0.224291677580268
1229	 0.224343285067906
1230	 0.224407039219423
1231	 0.22444964174226
1232	 0.224512721877985
1233	 0.22456168920327
1234	 0.224577245308916
1235	 0.224581727520798
1236	 0.224628453431811
1237	 0.224699742834409
1238	 0.224762697007536
1239	 0.2248489620528
1240	 0.224908139687765
1241	 0.224954834360704
1242	 0.225006375435069
1243	 0.225063269080598
1244	 0.225093304982745
1245	 0.225105491258969
1246	 0.225127311970627
1247	 0.225122953400841
1248	 0.225141455612772
1249	 0.225156862376855
1250	 0.225213443545502
1251	 0.225340325662346
1252	 0.225397511583387
1253	 0.225448246161765
1254	 0.225493723874246
1255	 0.225517127991407
1256	 0.225462671888274
1257	 0.225508518046534
1258	 0.225608850083228
1259	 0.225666937096462
1260	 0.225739832309338
1261	 0.225798044087301
1262	 0.225835177776293
1263	 0.225880694414645
1264	 0.225937624101424
1265	 0.225978605002931
1266	 0.226010232191949
1267	 0.226034709933955
1268	 0.226025225600265
1269	 0.226065880613662
1270	 0.226141435078528
1271	 0.226187051256185
1272	 0.226255182270505
1273	 0.226306670952252
1274	 0.226300255270502
1275	 0.226336246664371
1276	 0.226437164383975
1277	 0.226482402101618
1278	 0.226509727484844
1279	 0.226527940391351
1280	 0.226547161827677
1281	 0.226519180819056
1282	 0.226544657846322
1283	 0.226629910016809
1284	 0.226636537309962
1285	 0.226604249534123
1286	 0.226605038130155
1287	 0.226571568155309
1288	 0.226574573490803
1289	 0.226619265765374
1290	 0.226657858491978
1291	 0.226714002144417
1292	 0.22674344996102
1293	 0.226760036541453
1294	 0.226792209544589
1295	 0.226811666543134
1296	 0.226834660572494
1297	 0.226881732917756
1298	 0.226922770260862
1299	 0.226946434354797
1300	 0.226968631874421
1301	 0.227029028591087
1302	 0.227118680697124
1303	 0.227185529397786
1304	 0.22727326213469
1305	 0.227328105300561
1306	 0.227364310095536
1307	 0.2273905493325
1308	 0.227388124017173
1309	 0.227418738818485
1310	 0.227459196788675
1311	 0.227483126296478
1312	 0.227522422362322
1313	 0.227544381461705
1314	 0.227550160946968
1315	 0.227539243453585
1316	 0.227518855632601
1317	 0.227499568309197
1318	 0.227457305861616
1319	 0.227420015609894
1320	 0.2273952648715
1321	 0.227359117948489
1322	 0.227296777706384
1323	 0.22725611944249
1324	 0.227236227804898
1325	 0.22719877661207
1326	 0.22715702458764
1327	 0.227141451339458
1328	 0.227090711593218
1329	 0.227016615394486
1330	 0.226950732875994
1331	 0.226887547747352
1332	 0.22679485487996
1333	 0.22667752098257
1334	 0.226584856064256
1335	 0.226490745368433
1336	 0.226388855526588
1337	 0.226275608561734
1338	 0.226202946990661
1339	 0.226142368979754
1340	 0.226069069193352
1341	 0.226050676396536
1342	 0.225982067154997
1343	 0.225858935993573
1344	 0.225755840131339
1345	 0.225663665863251
1346	 0.225545421019672
1347	 0.225386741792334
1348	 0.225272303145024
1349	 0.225185835414494
1350	 0.225053414173206
1351	 0.224978407778572
1352	 0.224924126924173
1353	 0.22479651401496
1354	 0.224692121639022
1355	 0.22456858640224
1356	 0.224409544169707
1357	 0.224298052225454
1358	 0.224200458580979
1359	 0.22410709216455
1360	 0.224061753710694
1361	 0.223953618991802
1362	 0.223799555455614
1363	 0.223697404004927
1364	 0.223599339539714
1365	 0.223484350723812
1366	 0.223382345238644
1367	 0.223294593242621
1368	 0.223184789465417
1369	 0.223098873123335
1370	 0.223086992105094
1371	 0.223000042540373
1372	 0.222870949331003
1373	 0.222741856053818
1374	 0.222606594380578
1375	 0.222432097026334
1376	 0.222243018026873
1377	 0.222025317785608
1378	 0.22176157831828
1379	 0.221477529834581
1380	 0.221204167960811
1381	 0.2209071941276
1382	 0.220545711035697
1383	 0.220135487104473
1384	 0.219717835179414
1385	 0.219235510817574
1386	 0.218794118823273
1387	 0.218387190351891
1388	 0.217913717808143
1389	 0.217409991174541
1390	 0.216904288982472
1391	 0.216343302090667
1392	 0.21582773929024
1393	 0.215335590345021
1394	 0.214827824607933
1395	 0.214343021730899
1396	 0.213811520330436
1397	 0.21326860153474
1398	 0.21268549856865
1399	 0.212066237551279
1400	 0.211426384320426
1401	 0.210750727109761
1402	 0.210066219185208
1403	 0.209329949695999
1404	 0.208633664954573
1405	 0.207949584201182
1406	 0.207260771964861
1407	 0.206584453453879
1408	 0.205906343695199
1409	 0.205240865431683
1410	 0.204591436093236
1411	 0.203949451900429
1412	 0.203401780023579
1413	 0.202950338282384
1414	 0.202513756299366
1415	 0.202144018927246
1416	 0.20181566559907
1417	 0.201489181165297
1418	 0.201139198008141
1419	 0.200888279627008
1420	 0.200692042677349
1421	 0.200539828924958
1422	 0.200457472998352
1423	 0.200371484167721
1424	 0.200320387003428
1425	 0.200281639833124
1426	 0.200255761191624
1427	 0.200261287932836
1428	 0.200286538821703
1429	 0.200345823242009
1430	 0.200441949424912
1431	 0.200544134239143
1432	 0.200681852031486
1433	 0.20081474300592
1434	 0.200958354403041
1435	 0.201100760987279
1436	 0.20124850469888
1437	 0.201402230345948
1438	 0.201552263046962
1439	 0.201711980624177
1440	 0.201877145262566
1441	 0.202057072264079
1442	 0.202242630358564
1443	 0.202447421760635
1444	 0.202692278996619
1445	 0.202909523138375
1446	 0.203102544509178
1447	 0.203319492034945
1448	 0.203489527072185
1449	 0.203646029770728
1450	 0.20381944987923
1451	 0.203963924685069
1452	 0.204125142979402
1453	 0.204271116124501
1454	 0.204417168122902
1455	 0.2045743501651
1456	 0.20468630939958
1457	 0.204776785910343
1458	 0.204856591435502
1459	 0.204899385553431
1460	 0.204955992883793
1461	 0.204995287136866
1462	 0.205065826267469
1463	 0.205139518464138
1464	 0.205238819709808
1465	 0.205358977398949
1466	 0.205505383247168
1467	 0.205683322082984
1468	 0.205845417562368
1469	 0.206028454946978
1470	 0.206204297258065
1471	 0.206349582225535
1472	 0.206543598081943
1473	 0.206765662997913
1474	 0.206994019381585
1475	 0.207247834698932
1476	 0.207503377110411
1477	 0.207779733271888
1478	 0.208039900976994
1479	 0.208301499903914
1480	 0.208559195229099
1481	 0.208801392384219
1482	 0.20904760474774
1483	 0.209297526455411
1484	 0.209552338431484
1485	 0.209819274034406
1486	 0.210068775669081
1487	 0.210318923942886
1488	 0.210552031018117
1489	 0.210753284597768
1490	 0.210962615204862
1491	 0.21116024523205
1492	 0.211378627617783
1493	 0.21158381242887
1494	 0.211823072042759
1495	 0.212059874257052
1496	 0.212248860614976
1497	 0.212454435446196
1498	 0.212654574946238
1499	 0.212832449448525
1500	 0.21303723722385
1501	 0.213239828744879
1502	 0.213413257428321
1503	 0.213566276348965
1504	 0.213728783824994
1505	 0.213906463973007
1506	 0.214078929527066
1507	 0.214263123669023
1508	 0.214495227714388
1509	 0.214660530713727
1510	 0.214786207977334
1511	 0.214935244038661
1512	 0.215064127916252
1513	 0.215208622251163
1514	 0.215383024968756
1515	 0.215514803408535
1516	 0.215625250666522
1517	 0.215742619012131
1518	 0.215819283419057
1519	 0.215954672499259
1520	 0.216135162710759
1521	 0.216280388587425
1522	 0.21645772713692
1523	 0.216581899586806
1524	 0.216635088102052
1525	 0.21675436052919
1526	 0.216885726995877
1527	 0.21701916563623
1528	 0.217195641906223
1529	 0.217330378080535
1530	 0.217442440720485
1531	 0.217553142990504
1532	 0.217664325087494
1533	 0.217752359826121
1534	 0.217805436554082
1535	 0.217888009014366
1536	 0.217975953843454
1537	 0.218050741207541
1538	 0.218140935821435
1539	 0.218213876712742
1540	 0.218237172945578
1541	 0.218311959513992
1542	 0.218425917349432
1543	 0.218519491558214
1544	 0.218643678783277
1545	 0.218728451974943
1546	 0.218765922316351
1547	 0.21883055429787
1548	 0.218895394746219
1549	 0.218958696258777
1550	 0.219029819827412
1551	 0.219102335618372
1552	 0.219172568721439
1553	 0.219241127373858
1554	 0.219328657103637
1555	 0.219390677231097
1556	 0.219418987876883
1557	 0.219470666787467
1558	 0.219525634417683
1559	 0.219577836144426
1560	 0.219636635979696
1561	 0.219698681638584
1562	 0.219761618329075
1563	 0.219818334309327
1564	 0.219877305740886
1565	 0.219944070108593
1566	 0.220015982205968
1567	 0.220069275999242
1568	 0.220117388773902
1569	 0.220170244547918
1570	 0.22019345919416
1571	 0.220243600195709
1572	 0.220334851360454
1573	 0.220401604533728
1574	 0.220464443556645
1575	 0.220523238581615
1576	 0.220578986309887
1577	 0.220624172608611
1578	 0.220677792359789
1579	 0.220733533471783
1580	 0.220799165767852
1581	 0.220881688014616
1582	 0.220927232464483
1583	 0.220986993831368
1584	 0.221058886319803
1585	 0.221104176401804
1586	 0.22118041697801
1587	 0.221270554044744
1588	 0.221347321526357
1589	 0.221394615899917
1590	 0.22142527994718
1591	 0.221465265502223
1592	 0.221478245254089
1593	 0.221496808553797
1594	 0.221555976035152
1595	 0.221619772699168
1596	 0.221678237701159
1597	 0.221756350301929
1598	 0.221857355320389
1599	 0.221921218290527
1600	 0.221973666498762
1601	 0.222022321566675
1602	 0.222051240304282
1603	 0.222108724758311
1604	 0.222179071225824
1605	 0.222239974969014
1606	 0.222290798194497
1607	 0.22233993692804
1608	 0.222388974790392
1609	 0.222456182314499
1610	 0.222527264547982
1611	 0.222582052798019
1612	 0.222613755737688
1613	 0.222639376923592
1614	 0.222662180257582
1615	 0.222666014388121
1616	 0.22271503958967
1617	 0.222785785024353
1618	 0.222831109816046
1619	 0.222878906276821
1620	 0.222927464092596
1621	 0.222971398856001
1622	 0.22298974687718
1623	 0.22299576593479
1624	 0.223037880831162
1625	 0.22307043360027
1626	 0.223105400217209
1627	 0.223178905959072
1628	 0.223215250585309
1629	 0.22321540020149
1630	 0.223297764877411
1631	 0.223377684005078
1632	 0.223439239291231
1633	 0.223508863304287
1634	 0.223527810662374
1635	 0.223567973290384
1636	 0.22359817999568
1637	 0.223593846261558
1638	 0.223613367300311
1639	 0.223628218037243
1640	 0.22366927018752
1641	 0.223687742322285
1642	 0.223678564376311
1643	 0.223680465677199
1644	 0.223660786792734
1645	 0.223667406521857
1646	 0.223694536431678
1647	 0.223730573556315
1648	 0.223813023699692
1649	 0.223856433344422
1650	 0.223860866878729
1651	 0.223898627209423
1652	 0.223930879624351
1653	 0.223968816723545
1654	 0.224073552262142
1655	 0.224118705597786
1656	 0.224086998233701
1657	 0.224107521726976
1658	 0.224129640418647
1659	 0.224154763648759
1660	 0.224223058839942
1661	 0.224278668352681
1662	 0.224326092388507
1663	 0.22435920113223
1664	 0.224397732072056
1665	 0.224417918473466
1666	 0.224404714630682
1667	 0.224399293814749
1668	 0.224370397224726
1669	 0.224379174068272
1670	 0.224429765586138
1671	 0.224444553838026
1672	 0.224468632757399
1673	 0.224478445050568
1674	 0.224429532850068
1675	 0.224428070379781
1676	 0.22447862901595
1677	 0.224484206880811
1678	 0.224478414997559
1679	 0.224479115752402
1680	 0.224453057439001
1681	 0.224439350435204
1682	 0.224439667106437
1683	 0.224443659982705
1684	 0.224440854369831
1685	 0.224451754745442
1686	 0.224509309312822
1687	 0.224504754877822
1688	 0.224446636819323
1689	 0.22443808576475
1690	 0.224408748142138
1691	 0.224415413733457
1692	 0.224505002361345
1693	 0.224518179242107
1694	 0.224493542797338
1695	 0.22447962222955
1696	 0.224442916786807
1697	 0.224405963555764
1698	 0.224368629660931
1699	 0.224339469273877
1700	 0.224295334089841
1701	 0.224276698270031
1702	 0.224284188658358
1703	 0.224274428006074
1704	 0.224270713988135
1705	 0.224249733066477
1706	 0.224227314882481
1707	 0.224184268477437
1708	 0.224109962334446
1709	 0.224072530863759
1710	 0.224019416156166
1711	 0.224022986357117
1712	 0.224094660999326
1713	 0.224094914296715
1714	 0.224100220401349
1715	 0.224053108466265
1716	 0.223946533321097
1717	 0.223869993449085
1718	 0.223769998929614
1719	 0.223772633805373
1720	 0.223752946429031
1721	 0.223715394568403
1722	 0.223638489066771
1723	 0.223546564409532
1724	 0.223458518987247
1725	 0.22336574637264
1726	 0.223348697927723
1727	 0.22333589469959
1728	 0.223267907191244
1729	 0.223185564561222
1730	 0.223064552442996
1731	 0.222907834094374
1732	 0.222761794580142
1733	 0.222611813852202
1734	 0.222495366218738
1735	 0.222448991921114
1736	 0.222347912763005
1737	 0.222277412963999
1738	 0.222197067860659
1739	 0.222018380412019
1740	 0.221919882933973
1741	 0.221910202958419
1742	 0.221844844895769
1743	 0.221786288057062
1744	 0.221724605535265
1745	 0.221632815071952
1746	 0.221551131116967
1747	 0.221487045689355
1748	 0.221396495089967
1749	 0.221275927299842
1750	 0.221185549531145
1751	 0.221108744403288
1752	 0.221001832924863
1753	 0.220899388843526
1754	 0.22078667272322
1755	 0.220627304579212
1756	 0.220532990959662
1757	 0.220488413336049
1758	 0.220389133826129
1759	 0.220273938307541
1760	 0.220187980113903
1761	 0.220102146002598
1762	 0.220029748946984
1763	 0.220002600954362
1764	 0.21990815309658
1765	 0.219779013795723
1766	 0.219693251608877
1767	 0.219616976161214
1768	 0.219527681296662
1769	 0.219428478666964
1770	 0.219313927091042
1771	 0.219210185925269
1772	 0.219163458194997
1773	 0.219123916812527
1774	 0.219101200434456
1775	 0.219048979573551
1776	 0.218933782478414
1777	 0.218895428417217
1778	 0.218849169745757
1779	 0.218738991035894
1780	 0.218702249949464
1781	 0.218666150202053
1782	 0.218652390382636
1783	 0.218632062326323
1784	 0.218636959521412
1785	 0.21858827634979
1786	 0.218477396584188
1787	 0.218436466529936
1788	 0.218409786170157
1789	 0.218366639543401
1790	 0.218343454710542
1791	 0.218351093234484
1792	 0.218349004782973
1793	 0.218345987008594
1794	 0.218396033786805
1795	 0.218409658170984
1796	 0.218368279401337
1797	 0.218368103387581
1798	 0.218342047565002
1799	 0.218323804995954
1800	 0.218365425946453
1801	 0.218378787903632
1802	 0.218413698169185
1803	 0.218416916550301
1804	 0.218398530308486
1805	 0.218401010541822
1806	 0.218411884846228
1807	 0.218433887623397
1808	 0.218438075591172
1809	 0.218455046666993
1810	 0.218442331804632
1811	 0.218379708717592
1812	 0.218368782927567
1813	 0.218364309621454
1814	 0.218358258678788
1815	 0.218359859296506
1816	 0.218338856531943
1817	 0.218321110646757
1818	 0.218235767421928
1819	 0.218152151959516
1820	 0.218113259565539
1821	 0.218130348644877
1822	 0.218121186838528
1823	 0.218137169633689
1824	 0.21810127980421
1825	 0.218005101497241
1826	 0.217922713306673
1827	 0.217832707056336
1828	 0.217770266686223
1829	 0.217699482181343
1830	 0.217675012507401
1831	 0.218842715679826
1832	 0.218889007316446
1833	 0.218920105197949
1834	 0.218895737234093
1835	 0.218834520790708
1836	 0.218803686290048
1837	 0.218732790400544
1838	 0.218669514982562
1839	 0.218595975771531
1840	 0.218640351651707
1841	 0.218615671132461
1842	 0.218540570352076
1843	 0.21851458883714
1844	 0.218536508585269
1845	 0.218509642447724
1846	 0.218476353128195
1847	 0.218439364778536
1848	 0.218458346198628
1849	 0.218291545608355
1850	 0.218112639686775
1851	 0.218020725349241
1852	 0.217784536953685
1853	 0.217598343889082
1854	 0.217405261545179
1855	 0.217214559734427
1856	 0.216973865300379
1857	 0.216717187426168
1858	 0.216446251599981
1859	 0.216143612370669
1860	 0.215857087729023
1861	 0.215566343949359
1862	 0.215241669345447
1863	 0.214768545044212
1864	 0.214346955120319
1865	 0.213895743235345
1866	 0.213389640302754
1867	 0.212821460796486
1868	 0.212298463697403
1869	 0.211592488816705
1870	 0.210764060560073
1871	 0.20996764187956
1872	 0.209152690688274
1873	 0.208250386696956
1874	 0.207246352711916
1875	 0.206205655373921
1876	 0.205137547296456
1877	 0.204100591970737
1878	 0.202958627803985
1879	 0.20182933639161
1880	 0.200519061416373
1881	 0.199098342370633
1882	 0.19758277408104
1883	 0.195909562944152
1884	 0.194238527777118
1885	 0.192512250494296
1886	 0.190532989469521
1887	 0.188473679285186
1888	 0.186460808964553
1889	 0.184358521351679
1890	 0.182158075004855
1891	 0.179962023303603
1892	 0.177680386077814
1893	 0.175291733177949
1894	 0.172974419386859
1895	 0.17062643988584
1896	 0.168337195579788
1897	 0.166104974882696
1898	 0.163758516438083
1899	 0.161441322251058
1900	 0.15933626256786
1901	 0.157377580008681
1902	 0.155507360242707
1903	 0.153687426815851
1904	 0.152075829704932
1905	 0.150544048422921
1906	 0.149032214073057
1907	 0.147847005831592
1908	 0.146789215113362
1909	 0.145760770306769
1910	 0.144975449555798
1911	 0.144251812471397
1912	 0.143600122029003
1913	 0.143100577348865
1914	 0.142800875129831
1915	 0.14241183620307
1916	 0.142142710137176
1917	 0.141990803648089
1918	 0.141809044022313
1919	 0.14177793672553
1920	 0.141791041234614
1921	 0.141829650267914
1922	 0.141943726997413
1923	 0.142061261262908
1924	 0.142192189485046
1925	 0.142418793469944
1926	 0.142683929129367
1927	 0.142923026761386
1928	 0.143224774160911
1929	 0.143548989839116
1930	 0.143910993678349
1931	 0.14428582286937
1932	 0.144680241244798
1933	 0.145115525753154
1934	 0.14549481788862
1935	 0.145811138726631
1936	 0.146183034862327
1937	 0.146609863376532
1938	 0.147036899945482
1939	 0.147565190386505
1940	 0.148041703016189
1941	 0.148476566708119
1942	 0.148897958518512
1943	 0.149250752013181
1944	 0.149639029838652
1945	 0.150002869571752
1946	 0.150294639873543
1947	 0.150658837486398
1948	 0.151034456048545
1949	 0.15145972197511
1950	 0.151963185544561
1951	 0.152497978674571
1952	 0.152948721733993
1953	 0.153384354355968
1954	 0.153757664373234
1955	 0.154111028472347
1956	 0.154614761735153
1957	 0.155073436591354
1958	 0.155500074652096
1959	 0.155927923641914
1960	 0.156343824379764
1961	 0.156676509941563
1962	 0.157099024957039
1963	 0.15759364062251
1964	 0.15813996509793
1965	 0.158668819951246
1966	 0.159138383135085
1967	 0.159571618248171
1968	 0.159963430714633
1969	 0.160440592659646
1970	 0.160987317268488
1971	 0.16148049005583
1972	 0.162014308875281
1973	 0.162522570898049
1974	 0.16295748042184
1975	 0.163472317945998
1976	 0.164047579377958
1977	 0.164575096295903
1978	 0.165181891226659
1979	 0.165717876053019
1980	 0.166229647378887
1981	 0.166779139248952
1982	 0.167305528207222
1983	 0.167818219117767
1984	 0.168367966910501
1985	 0.16891565631632
1986	 0.16944277695917
1987	 0.169984843644678
1988	 0.170515985142757
1989	 0.17097672436725
1990	 0.171498319080644
1991	 0.172103892330129
1992	 0.172643955194221
1993	 0.173153425013976
1994	 0.173735972269555
1995	 0.174277862102116
1996	 0.174729050786574
1997	 0.175283403799799
1998	 0.175942972627926
1999	 0.176500095364911
2000	 0.177046414767419
2001	 0.177600578406509
2002	 0.178027755739982
2003	 0.178448039556523
2004	 0.178928473792205
2005	 0.179338289589787
2006	 0.179896398715238
2007	 0.180493157922568
2008	 0.181049096190422
2009	 0.181685228893615
2010	 0.182199823681969
2011	 0.182635683018805
2012	 0.18307730113621
2013	 0.183444854955792
2014	 0.183846962331166
2015	 0.184261187026146
2016	 0.184631412953135
2017	 0.185037607595101
2018	 0.185498581545059
2019	 0.185918501734719
2020	 0.186291380644016
2021	 0.186754678569039
2022	 0.187256144590091
2023	 0.187705352581065
2024	 0.188263711041335
2025	 0.188683688211785
2026	 0.188943540919593
2027	 0.189297955842501
2028	 0.189660709981577
2029	 0.189983707498478
2030	 0.190361701141957
2031	 0.190727634886123
2032	 0.191083675466681
2033	 0.19143424636889
2034	 0.191794956935637
2035	 0.192161338633839
2036	 0.192449689850693
2037	 0.192648931664631
2038	 0.192930409186591
2039	 0.193164798445084
2040	 0.193462438421035
2041	 0.193877938016505
2042	 0.194204206660663
2043	 0.194488925019346
2044	 0.194815730104663
2045	 0.195076688649625
2046	 0.195355341270011
2047	 0.195686872054573
2048	 0.196020751237881
2049	 0.196316894616417
2050	 0.196597752263944
2051	 0.196852114556013
2052	 0.197031845612466
2053	 0.197244628425956
2054	 0.197436801453694
2055	 0.197667366792762
2056	 0.197942167956056
2057	 0.198207411086703
2058	 0.198453079968037
2059	 0.198776144172062
2060	 0.199126536958606
2061	 0.199386571998414
2062	 0.199655934302255
2063	 0.199960270039952
2064	 0.200228463085783
2065	 0.200434363027323
2066	 0.20070868754928
2067	 0.201085751091435
2068	 0.201309630841103
2069	 0.201473065378471
2070	 0.201657641090579
2071	 0.201686649431078
2072	 0.20186934259043
2073	 0.202178569649231
2074	 0.20245068837379
2075	 0.202774924842849
2076	 0.203078686065823
2077	 0.203375978869156
2078	 0.203625546794011
2079	 0.203794120944804
2080	 0.20401388940445
2081	 0.204217026197833
2082	 0.204350741805445
2083	 0.204547107668822
2084	 0.20481866652778
2085	 0.205030671489365
2086	 0.20522303536956
2087	 0.205434230934504
2088	 0.205613621625784
2089	 0.20581703606149
2090	 0.206069773003834
2091	 0.206292152976682
2092	 0.206472230268189
2093	 0.206705084218882
2094	 0.207020843454188
2095	 0.207251947316822
2096	 0.207547448297914
2097	 0.207889996210808
2098	 0.208115877393334
2099	 0.208269455292371
2100	 0.208411655082265
2101	 0.208475901680835
2102	 0.208561574992205
2103	 0.208560911298304
2104	 0.208705887047674
2105	 0.208915829771568
2106	 0.209149460528475
2107	 0.20958259089673
2108	 0.209833881228748
2109	 0.209974046063049
2110	 0.210146330036828
2111	 0.210283935544743
2112	 0.210366898598148
2113	 0.210533391687929
2114	 0.210670584244211
2115	 0.210891342594178
2116	 0.211161771347938
2117	 0.211395973384128
2118	 0.211687452166111
2119	 0.211945026145177
2120	 0.212170321445294
2121	 0.212361794163351
2122	 0.212560110709298
2123	 0.212742651926904
2124	 0.212864001951164
2125	 0.212989250718493
2126	 0.213134484852074
2127	 0.213227225965502
2128	 0.213350719569293
2129	 0.213542785350766
2130	 0.21370902956394
2131	 0.213871440719389
2132	 0.213981272158536
2133	 0.214028917498055
2134	 0.214073876646783
2135	 0.21408586063696
2136	 0.214152678593673
2137	 0.214203690659048
2138	 0.21426967721152
2139	 0.214385968931551
2140	 0.214460953516537
2141	 0.214526343383302
2142	 0.214589822547536
2143	 0.214672025829771
2144	 0.214691114248858
2145	 0.214669004425047
2146	 0.214633876271876
2147	 0.214515128136012
2148	 0.214469884836735
2149	 0.214428178118464
2150	 0.214355044309028
2151	 0.214383025962273
2152	 0.214444626763205
2153	 0.214419182378058
2154	 0.214426957061777
2155	 0.214332083526386
2156	 0.214065598253345
2157	 0.213955950108097
2158	 0.21387458491088
2159	 0.213791737431375
2160	 0.213832743667349
2161	 0.213740870855813
2162	 0.213515290977456
2163	 0.21340012866743
2164	 0.21329914932998
2165	 0.213184023741211
2166	 0.213148715237403
2167	 0.213049974138623
2168	 0.212891876534011
2169	 0.212715253725229
2170	 0.212549335338677
2171	 0.212488731970476
2172	 0.212388106292895
2173	 0.212341318251204
2174	 0.212281384485848
2175	 0.212217077348997
2176	 0.212161668361961
2177	 0.212127576133445
2178	 0.212075537695979
2179	 0.212037417108986
2180	 0.211946556002557
2181	 0.211807017990374
2182	 0.211708374490699
2183	 0.211607303394687
2184	 0.211508044266774
2185	 0.211484087329973
2186	 0.211355110723719
2187	 0.211106775626099
2188	 0.210907302781875
2189	 0.210624240563953
2190	 0.210471095285736
2191	 0.210355831327586
2192	 0.21039738643476
2193	 0.210464361275835
2194	 0.210408358733812
2195	 0.210327188868308
2196	 0.210176037972666
2197	 0.209994780543496
2198	 0.209747513294774
2199	 0.209495997911178
2200	 0.209165035817677
2201	 0.208964321789456
2202	 0.208744798381596
2203	 0.20864608406598
2204	 0.208675913221617
2205	 0.208699284517158
2206	 0.208866202310303
2207	 0.208885985278772
2208	 0.20888368105934
2209	 0.208826760559004
2210	 0.208572958738541
2211	 0.208467009642864
2212	 0.208469500601789
2213	 0.208403789794897
2214	 0.20832398280902
2215	 0.20830672631254
2216	 0.208230061406541
2217	 0.20825330213768
2218	 0.20845580254682
2219	 0.208613948147584
2220	 0.208694856304696
2221	 0.20870303191791
2222	 0.208634425757881
2223	 0.208493798627238
2224	 0.208402639340021
2225	 0.208319261575908
2226	 0.208239166341056
2227	 0.208176544060308
2228	 0.208079319561622
2229	 0.207956159603919
2230	 0.207889574129141
2231	 0.207829838479168
2232	 0.207779320676727
2233	 0.207767351163551
2234	 0.207749345193408
2235	 0.207777567289609
2236	 0.207671900754364
2237	 0.207545261759875
2238	 0.207378748343027
2239	 0.206997802225371
2240	 0.206774141388308
2241	 0.206609413363854
2242	 0.206462944004395
2243	 0.206380151569208
2244	 0.206332238831805
2245	 0.206271133023913
2246	 0.206391077115429
2247	 0.206351394710255
2248	 0.206281759788432
2249	 0.206300053991261
2250	 0.206051294536754
2251	 0.205871715198539
2252	 0.205822659249089
2253	 0.205635072413202
2254	 0.205598261620481
2255	 0.205747684566394
2256	 0.205748078528911
2257	 0.205614232915524
2258	 0.205360616761038
2259	 0.20521562740074
2260	 0.204953043580177
2261	 0.20481357755308
2262	 0.204812204383347
2263	 0.204740865138845
2264	 0.204649427482383
2265	 0.204509698144952
2266	 0.204464503823098
2267	 0.20425932623092
2268	 0.203775027165267
2269	 0.203607530195093
2270	 0.203530498437287
2271	 0.203400108368993
2272	 0.203480888134591
2273	 0.203368147639224
2274	 0.203144077551977
2275	 0.202898424964838
2276	 0.202587188326724
2277	 0.202312659907304
2278	 0.202004808151695
2279	 0.201616437783163
2280	 0.201115854807009
2281	 0.200740056353951
2282	 0.200348961081556
2283	 0.199988160626263
2284	 0.199798005689352
2285	 0.199748296939888
2286	 0.199579578142591
2287	 0.19939426042808
2288	 0.199191693595707
2289	 0.198835480225078
2290	 0.198418785366812
2291	 0.197949763948169
2292	 0.197477439940793
2293	 0.197130735419177
2294	 0.196903814686293
2295	 0.196737450877639
2296	 0.196588153597612
2297	 0.19652285184636
2298	 0.196533464089769
2299	 0.19649117201043
2300	 0.1964320331873
2301	 0.196334525315849
2302	 0.196204345929734
2303	 0.19598921761676
2304	 0.195779464824025
2305	 0.195548199941488
2306	 0.19536659823262
2307	 0.195158851774238
2308	 0.194958527449397
2309	 0.194803467266604
2310	 0.194634151142744
2311	 0.194438862102346
2312	 0.194208923546059
2313	 0.193953446782944
2314	 0.193802307900331
2315	 0.193639531088693
2316	 0.193619104140151
2317	 0.193781741231328
2318	 0.193780160252149
2319	 0.19372703464635
2320	 0.193711243551135
2321	 0.193644111801023
2322	 0.193704032229105
2323	 0.193933630573145
2324	 0.193975697388615
2325	 0.194026435740516
2326	 0.193974366810214
2327	 0.193694138015553
2328	 0.193601065935842
2329	 0.193521535312792
2330	 0.193452676271845
2331	 0.19354904628782
2332	 0.193506186170385
2333	 0.193267189693518
2334	 0.193249595820175
2335	 0.193321929345698
2336	 0.193360764101138
2337	 0.193693526051335
2338	 0.193647895007799
2339	 0.193433673657145
2340	 0.193108476665735
2341	 0.19241877292619
2342	 0.191878716455231
2343	 0.19163634220947
2344	 0.191340234238602
2345	 0.191742670058277
2346	 0.192139929663736
2347	 0.191977293611865
2348	 0.191657749871971
2349	 0.19085696268944
2350	 0.190081035550535
2351	 0.18964004029281
2352	 0.189355736342387
2353	 0.189163549547014
2354	 0.18901571417566
2355	 0.188949915154246
2356	 0.188833899925647
2357	 0.18871836208557
2358	 0.188378747627656
2359	 0.187985371083082
2360	 0.187885858284505
2361	 0.187772593297822
2362	 0.187840725750326
2363	 0.187961752949633
2364	 0.187669664371829
2365	 0.187418969708057
2366	 0.187029385511247
2367	 0.186385491728582
2368	 0.186059559645361
2369	 0.185775991675865
2370	 0.185498768552554
2371	 0.185390708013695
2372	 0.185179022645977
2373	 0.185031770975425
2374	 0.184889557719311
2375	 0.184537496811125
2376	 0.184115313516686
2377	 0.183451908586218
2378	 0.18244848760193
2379	 0.181774185204526
2380	 0.18146247843463
2381	 0.18109200340497
2382	 0.181111846343329
2383	 0.181073292879405
2384	 0.180809141771093
2385	 0.180734425221621
2386	 0.180455618919897
2387	 0.179750051397453
2388	 0.178917790509125
2389	 0.178393185724254
2390	 0.177939898246758
2391	 0.177719691467583
2392	 0.17772011419237
2393	 0.177459390101153
2394	 0.176875558597061
2395	 0.176249007401338
2396	 0.175861693638197
2397	 0.175381648489257
2398	 0.175053183206743
2399	 0.17505221091889
2400	 0.174554093434966
2401	 0.173789609628269
2402	 0.173508016822775
2403	 0.173169559383249
2404	 0.1730481345383
2405	 0.173328998747739
2406	 0.172995328350478
2407	 0.172429429944973
2408	 0.172130345985642
2409	 0.171654341950875
2410	 0.171025178912825
2411	 0.170731721984415
2412	 0.170488631140607
2413	 0.170130981845547
2414	 0.170042252314334
2415	 0.169555974203959
2416	 0.16864978683203
2417	 0.168096107925206
2418	 0.167707106780526
2419	 0.167136686334755
2420	 0.166930711949369
2421	 0.166718941762429
2422	 0.165962622952386
2423	 0.165928487201239
2424	 0.165517435771542
2425	 0.164953312262705
2426	 0.164412620771155
2427	 0.163576924431124
2428	 0.163212893337206
2429	 0.163002972436728
2430	 0.162686947243622
2431	 0.16272835402032
2432	 0.162397921982889
2433	 0.161641807009647
2434	 0.161004900280853
2435	 0.160437136788071
2436	 0.15985798502493
2437	 0.159033112156338
2438	 0.158752831150117
2439	 0.158938825357517
2440	 0.158860787047865
2441	 0.158783690252793
2442	 0.158959399403662
2443	 0.158372085927283
2444	 0.157538521970132
2445	 0.157591189204052
2446	 0.157739461174292
2447	 0.157486648437691
2448	 0.157509711307986
2449	 0.157140221883954
2450	 0.156435257414579
2451	 0.155786692423574
2452	 0.155028200323734
2453	 0.155107987601335
2454	 0.154412018019929
2455	 0.153185143860254
2456	 0.153043359805438
2457	 0.152106710291982
2458	 0.15138728522512
2459	 0.151643186581177
2460	 0.151639043072119
2461	 0.151818969924327
2462	 0.151709121520323
2463	 0.15132709687778
2464	 0.151124741739314
2465	 0.150134896528076
2466	 0.149268221391894
2467	 0.149723339899579
2468	 0.149211349041864
2469	 0.148244897315541
2470	 0.148366260071951
2471	 0.14740046225207
2472	 0.146716434888714
2473	 0.147324307852345
2474	 0.146694850940918
2475	 0.145352344048407
2476	 0.144268443846883
2477	 0.143224170766175
2478	 0.142989120301481
2479	 0.143574523543371
2480	 0.144027569590434
2481	 0.144255947003842
2482	 0.144607314574458
2483	 0.144616190643123
2484	 0.144363601271724
2485	 0.143767330191341
2486	 0.143136750514928
2487	 0.142308110004488
2488	 0.141867762453949
2489	 0.14188153171554
2490	 0.141427168744242
2491	 0.142148616293127
2492	 0.142732911166875
2493	 0.14219980858357
2494	 0.142223785378887
2495	 0.141977402333054
2496	 0.141071923874727
2497	 0.140592184408158
2498	 0.139738232355009
2499	 0.13839597239538
2500	 0.138017627950006
