Wavelength	signature0027.asd
350	 0.187273499110122
351	 0.198276241633719
352	 0.187451872667319
353	 0.17348579661299
354	 0.184540886526867
355	 0.18225386956668
356	 0.179671411617022
357	 0.180056264754352
358	 0.177832047878551
359	 0.177913530374649
360	 0.1785562842289
361	 0.178827194820741
362	 0.179862868464284
363	 0.177520018909694
364	 0.175165283294098
365	 0.176067547804262
366	 0.179853656356189
367	 0.18316852122043
368	 0.181376522493058
369	 0.17352426644639
370	 0.174404116114441
371	 0.177080549564147
372	 0.179214239158179
373	 0.181333836077509
374	 0.178105536469856
375	 0.176427821010157
376	 0.17850827125035
377	 0.179957596056558
378	 0.182960201522225
379	 0.184419300865224
380	 0.182770516974404
381	 0.181274472051119
382	 0.181452744592227
383	 0.182296956148715
384	 0.182215907960787
385	 0.180814308486357
386	 0.182502334492623
387	 0.185805219443466
388	 0.186289653344521
389	 0.185706611819996
390	 0.184028922681195
391	 0.182892010475278
392	 0.185456149808173
393	 0.185126311675912
394	 0.185169493259546
395	 0.187468502725396
396	 0.186888416303359
397	 0.18838013816119
398	 0.18979918811399
399	 0.188393723085292
400	 0.188019196256272
401	 0.188146143962675
402	 0.189191598733384
403	 0.19165970370421
404	 0.190967713448206
405	 0.190443307069373
406	 0.191508934436847
407	 0.192176426068618
408	 0.192144381845076
409	 0.192266965674834
410	 0.192853607959608
411	 0.192004290872487
412	 0.192235163562672
413	 0.193531928213692
414	 0.194845920628587
415	 0.195740668619623
416	 0.195969904803487
417	 0.195636207657089
418	 0.195217830335285
419	 0.196985573376403
420	 0.198320271480619
421	 0.197993309674218
422	 0.198365954136455
423	 0.199252849365805
424	 0.20025698222371
425	 0.200996349228069
426	 0.201545308838002
427	 0.202461755484374
428	 0.203159274250472
429	 0.202769916530593
430	 0.204372291489699
431	 0.205691079314825
432	 0.205736063067658
433	 0.205918743301341
434	 0.207271794964219
435	 0.208561538938843
436	 0.208842190401186
437	 0.209648040292405
438	 0.21030414631785
439	 0.211045032988046
440	 0.212288086993124
441	 0.212689670169509
442	 0.213573682782377
443	 0.215028109960548
444	 0.215651288748231
445	 0.216444029517654
446	 0.216982916710267
447	 0.217331127910447
448	 0.219595808263492
449	 0.220535628562678
450	 0.220631955434914
451	 0.221560371992923
452	 0.222600329279859
453	 0.22325603322817
454	 0.223677876885646
455	 0.224556507585189
456	 0.225361273313374
457	 0.226158107722791
458	 0.226951488177202
459	 0.227378707811571
460	 0.227863522694712
461	 0.228603266927248
462	 0.229597206205627
463	 0.230420823004085
464	 0.230946994066233
465	 0.231412395000941
466	 0.232258458265664
467	 0.232552244789766
468	 0.232999715194742
469	 0.233886043617382
470	 0.234146185953185
471	 0.235402303177568
472	 0.23625939400085
473	 0.235382494470408
474	 0.236126649592646
475	 0.237150112232076
476	 0.237845097547408
477	 0.238318112828783
478	 0.2385086439148
479	 0.239001977755656
480	 0.239839698859081
481	 0.239901097610548
482	 0.240521999826783
483	 0.241457159164803
484	 0.242121873127133
485	 0.242780377030607
486	 0.243299286214058
487	 0.243833905591364
488	 0.244681460026184
489	 0.245028782047256
490	 0.245471750948634
491	 0.24635989676313
492	 0.247266364826812
493	 0.248034508081186
494	 0.248541857302801
495	 0.248879088037914
496	 0.249892955986942
497	 0.250614654642481
498	 0.251033240924818
499	 0.251870687053159
500	 0.252667869679387
501	 0.253492030755115
502	 0.254404388074254
503	 0.25532907037284
504	 0.256129517775346
505	 0.256712754657661
506	 0.25712334155587
507	 0.25785328841866
508	 0.258793834851142
509	 0.2596954720084
510	 0.260264014771251
511	 0.260894048993346
512	 0.261633548131848
513	 0.262427046461841
514	 0.263133175753646
515	 0.2638546684433
516	 0.264522549729028
517	 0.265090557129767
518	 0.265919278671505
519	 0.266748127034923
520	 0.267500516600044
521	 0.26829216249202
522	 0.26896707252445
523	 0.269602655790887
524	 0.270297149129601
525	 0.271119499155201
526	 0.271766216755998
527	 0.272499924177615
528	 0.273634465827375
529	 0.274329446460947
530	 0.275048995386623
531	 0.27592732409083
532	 0.276663762765677
533	 0.277648973372054
534	 0.278575081693207
535	 0.279247432396366
536	 0.280152147454952
537	 0.281077949827941
538	 0.282016006677676
539	 0.283044011471186
540	 0.28416308741256
541	 0.285206913044292
542	 0.286153734791012
543	 0.287171107188929
544	 0.288180842332396
545	 0.289368820433444
546	 0.290796522876369
547	 0.291948631389245
548	 0.293166588488813
549	 0.294410117405632
550	 0.295457757728318
551	 0.296653692819926
552	 0.297927241563679
553	 0.299195905461718
554	 0.300438115016347
555	 0.30171471959784
556	 0.303031749487321
557	 0.304365889640315
558	 0.305623121190897
559	 0.307005937131318
560	 0.308477398047294
561	 0.309837272302777
562	 0.311369337212201
563	 0.312722831984862
564	 0.313805737385902
565	 0.315225244060721
566	 0.316485505886263
567	 0.317775687302401
568	 0.319387417791087
569	 0.320859826184724
570	 0.322331109756827
571	 0.323826059304423
572	 0.325242919009947
573	 0.326718415521983
574	 0.328269441347518
575	 0.329890904290807
576	 0.331579953656016
577	 0.333247825454429
578	 0.334989841986213
579	 0.336915401387483
580	 0.33866321771503
581	 0.340516927977181
582	 0.342427464054412
583	 0.343900229638462
584	 0.345388356597807
585	 0.346961885986388
586	 0.348520926241319
587	 0.349749329181089
588	 0.350879398942331
589	 0.352037707883151
590	 0.353253187264726
591	 0.354350962324159
592	 0.355351912095361
593	 0.356251256411626
594	 0.356959159365685
595	 0.357775245439909
596	 0.35856621552678
597	 0.359165517376553
598	 0.359807474354862
599	 0.360430325753607
600	 0.361042991411945
601	 0.361684854661326
602	 0.362154171757588
603	 0.362666179426542
604	 0.36329073702271
605	 0.363707226881293
606	 0.364179569437308
607	 0.364724042671152
608	 0.365257459266654
609	 0.365646993517481
610	 0.366053998171689
611	 0.366527220506765
612	 0.366989534042454
613	 0.36725766419571
614	 0.367559922438313
615	 0.368023449173221
616	 0.368348077736936
617	 0.368750086043039
618	 0.369232650717463
619	 0.369718797865719
620	 0.370186719659957
621	 0.370659460733578
622	 0.37115375148271
623	 0.371677490549273
624	 0.372336723858413
625	 0.37289907420624
626	 0.373275275286114
627	 0.373995347317818
628	 0.374699919947571
629	 0.375316976320445
630	 0.375920333468517
631	 0.376470046218224
632	 0.377183307641235
633	 0.378063428332512
634	 0.378803105024878
635	 0.379514233560024
636	 0.380343028426014
637	 0.381334947598229
638	 0.382163667943005
639	 0.382915932198443
640	 0.383754209283913
641	 0.384825917796819
642	 0.385704165418491
643	 0.386550990019859
644	 0.387444026245177
645	 0.388200115648057
646	 0.389076945383379
647	 0.389965677731955
648	 0.390705655139378
649	 0.391382575290865
650	 0.392187832778512
651	 0.393028784022983
652	 0.393635907625344
653	 0.39432994444329
654	 0.395081933834501
655	 0.395795501492203
656	 0.396335954660816
657	 0.396930537874183
658	 0.397642289956541
659	 0.398418287329816
660	 0.398960051693711
661	 0.399638933636684
662	 0.400482671488093
663	 0.401214667185112
664	 0.401993699698095
665	 0.40279732817879
666	 0.403593210858882
667	 0.404388843316468
668	 0.405209206372829
669	 0.406013158869165
670	 0.406756807410133
671	 0.40750663930027
672	 0.40835335982645
673	 0.409241841168603
674	 0.409993714634085
675	 0.410807554329513
676	 0.411633845699657
677	 0.412424913372424
678	 0.413234975918484
679	 0.414122071577726
680	 0.415047064765652
681	 0.415958115581673
682	 0.417001817054232
683	 0.418011097536425
684	 0.418984054112832
685	 0.420099095998608
686	 0.421246691453365
687	 0.422495521569564
688	 0.423868204730965
689	 0.425195052339926
690	 0.426555995156985
691	 0.427986968944811
692	 0.429490336085204
693	 0.430967602221188
694	 0.432470019758838
695	 0.433971782564602
696	 0.43536278443174
697	 0.436725670280255
698	 0.438042039693016
699	 0.439307984192816
700	 0.440610262333284
701	 0.441886040692206
702	 0.443120560086154
703	 0.444308755726717
704	 0.44537740767896
705	 0.446395300421486
706	 0.447429803472229
707	 0.448526657106344
708	 0.449564322308477
709	 0.450490458164133
710	 0.451340107669615
711	 0.452322789918909
712	 0.453231781620892
713	 0.454044529118669
714	 0.454817755123348
715	 0.455588224084685
716	 0.456429408500125
717	 0.457276364709048
718	 0.457948146181564
719	 0.458659124897149
720	 0.45934216856178
721	 0.459959783991981
722	 0.460661163495743
723	 0.461320527837325
724	 0.46192120576076
725	 0.462490041706291
726	 0.463056910879444
727	 0.463612207931939
728	 0.46419231400511
729	 0.4648523433611
730	 0.465291365759293
731	 0.4657256050573
732	 0.466272046609983
733	 0.466684221784393
734	 0.467126677870446
735	 0.467585848721849
736	 0.468010707445961
737	 0.468450299004983
738	 0.468815392376367
739	 0.469133364133284
740	 0.469507857625277
741	 0.46985617033906
742	 0.47026135940416
743	 0.470712877675434
744	 0.471023611716567
745	 0.471337267733487
746	 0.471643130809898
747	 0.47192515428896
748	 0.472310960473331
749	 0.472557077388218
750	 0.472744333452086
751	 0.473104684893594
752	 0.473487355324394
753	 0.473741525278527
754	 0.473903175488723
755	 0.474221475660908
756	 0.474461937994115
757	 0.474676672274902
758	 0.474926565717111
759	 0.475131422342803
760	 0.475347401042076
761	 0.475536252609645
762	 0.47565540792819
763	 0.475835889399993
764	 0.476081290935403
765	 0.476317861777524
766	 0.476429692718021
767	 0.476563334602563
768	 0.476718701450263
769	 0.476878022552008
770	 0.477034847672163
771	 0.477202765485443
772	 0.47736114705846
773	 0.477492340239998
774	 0.477627666335722
775	 0.477732211518153
776	 0.477819965976666
777	 0.477930302114077
778	 0.478065133400384
779	 0.478170542501427
780	 0.478259684778266
781	 0.478419143823183
782	 0.478495950448994
783	 0.478579251478992
784	 0.47872271367799
785	 0.478794909803343
786	 0.478808316659105
787	 0.478841507033654
788	 0.478964006737808
789	 0.479094286195209
790	 0.479190358135419
791	 0.479273626998356
792	 0.479388589884992
793	 0.479382215829895
794	 0.47935725109545
795	 0.479389432325412
796	 0.479478619575822
797	 0.479615099941587
798	 0.479697587781857
799	 0.479688787151819
800	 0.479755879766869
801	 0.479696118457777
802	 0.479620464588138
803	 0.479694832266299
804	 0.479809068688931
805	 0.479830751789072
806	 0.479800072659029
807	 0.47984344685144
808	 0.47972936010058
809	 0.479698190168217
810	 0.479802698399575
811	 0.479820050272254
812	 0.479916993354339
813	 0.479924948238463
814	 0.479795341333409
815	 0.479870421985036
816	 0.479939163274504
817	 0.479968836684088
818	 0.479979275152418
819	 0.479970687136964
820	 0.479959639779389
821	 0.479916521955824
822	 0.479819810017296
823	 0.479867198601481
824	 0.479917866755861
825	 0.479907675480698
826	 0.479877844091844
827	 0.479847566195692
828	 0.479888919289644
829	 0.479964427548199
830	 0.479862121550245
831	 0.479827836571617
832	 0.479820369822631
833	 0.479774329089261
834	 0.479762449463549
835	 0.479761442240254
836	 0.47974024845909
837	 0.479683425703013
838	 0.479663026413659
839	 0.479587515421852
840	 0.479526871094863
841	 0.479600647605611
842	 0.479511962283949
843	 0.479418046128349
844	 0.479417236811397
845	 0.47949012623994
846	 0.4794757449909
847	 0.479411127004579
848	 0.479390529909703
849	 0.479530598930265
850	 0.479399762647434
851	 0.47922530849998
852	 0.479232684874392
853	 0.479241555051543
854	 0.479273838431047
855	 0.479268142011254
856	 0.479198741474049
857	 0.479250422974977
858	 0.479277660071543
859	 0.47925678812389
860	 0.479243157482536
861	 0.479344066592069
862	 0.479360978359993
863	 0.479279949780926
864	 0.479243827051539
865	 0.479343877722505
866	 0.47939152688854
867	 0.479333743261744
868	 0.479298943814367
869	 0.479335005640069
870	 0.479315181721374
871	 0.479238506796377
872	 0.479327964539637
873	 0.479363899499755
874	 0.47937053278989
875	 0.479402626502232
876	 0.479458261651161
877	 0.479485189572029
878	 0.479525759499853
879	 0.479610939693902
880	 0.479654603749211
881	 0.479630091971117
882	 0.479647588546931
883	 0.47978810420949
884	 0.47978752674938
885	 0.479836520291841
886	 0.479869520037408
887	 0.479770822741289
888	 0.479946336724907
889	 0.47997363122537
890	 0.47990875713065
891	 0.480093599783065
892	 0.480176535832107
893	 0.480201054014241
894	 0.480267828457012
895	 0.480454163893682
896	 0.480441654266659
897	 0.480452821865739
898	 0.480567997625395
899	 0.480645879559603
900	 0.480904058856836
901	 0.481114932481198
902	 0.481121573562512
903	 0.480992496392857
904	 0.481316560090806
905	 0.481568978128368
906	 0.481474905270041
907	 0.481556414594393
908	 0.481736619049085
909	 0.48185868693924
910	 0.481921027616654
911	 0.48228187816779
912	 0.482387031643421
913	 0.482361808153408
914	 0.482476570548109
915	 0.482882397968951
916	 0.483066782337745
917	 0.483018550727895
918	 0.48296607610482
919	 0.483310905117132
920	 0.483601426758467
921	 0.483726588723805
922	 0.483749381697463
923	 0.483862839367536
924	 0.484039123506823
925	 0.484214327254534
926	 0.484343790097864
927	 0.484509656777312
928	 0.484711983413067
929	 0.484847067547748
930	 0.484880218398333
931	 0.485190952800906
932	 0.485402827828929
933	 0.485531643728616
934	 0.48573452259973
935	 0.485960666198554
936	 0.486144628008812
937	 0.486230820082353
938	 0.486233632058486
939	 0.486395160559388
940	 0.486497331028035
941	 0.486636222595717
942	 0.486971027729494
943	 0.487271599908486
944	 0.487374955751985
945	 0.487443295258446
946	 0.487662698231361
947	 0.487596083767347
948	 0.487721592872439
949	 0.487839770500695
950	 0.487675976683454
951	 0.488090030230681
952	 0.48835778204508
953	 0.488492352608447
954	 0.488768425751214
955	 0.488944908693548
956	 0.489337094551045
957	 0.489597310020489
958	 0.489434344476002
959	 0.489886204571069
960	 0.490027928706828
961	 0.490011876884265
962	 0.490256436483043
963	 0.490431419702701
964	 0.490720131614831
965	 0.491060830797042
966	 0.491302705476104
967	 0.491283636940324
968	 0.49165251807663
969	 0.492004101815629
970	 0.492004366863403
971	 0.492513653625806
972	 0.492593466963524
973	 0.492762005743519
974	 0.493463139705912
975	 0.493982157955899
976	 0.494239678176805
977	 0.494368826502462
978	 0.494637997565528
979	 0.495359276796376
980	 0.495365772488867
981	 0.49549455379844
982	 0.496080307607198
983	 0.496036888287922
984	 0.496272752269926
985	 0.496620005062596
986	 0.496892958470568
987	 0.497164061716515
988	 0.497741275413366
989	 0.49812462892674
990	 0.498195428248553
991	 0.498315218490766
992	 0.498343620138448
993	 0.498691067131549
994	 0.499222624751871
995	 0.499472059252298
996	 0.499908617959977
997	 0.500433889697345
998	 0.500853270981618
999	 0.50099255667086
1000	 0.500808497845424
1001	 0.485489716869908
1002	 0.48566854367231
1003	 0.48598047129095
1004	 0.486302823635965
1005	 0.486421582055893
1006	 0.486597510021488
1007	 0.486876924272128
1008	 0.487246945525181
1009	 0.487516622394568
1010	 0.487817812422442
1011	 0.488025220744705
1012	 0.488121210569746
1013	 0.488173559233248
1014	 0.488332242681189
1015	 0.488504370357926
1016	 0.488741414347096
1017	 0.488966081097463
1018	 0.489046604788863
1019	 0.489215856283424
1020	 0.489469028429417
1021	 0.489664742485982
1022	 0.48986268502617
1023	 0.490111691999731
1024	 0.490271629425566
1025	 0.49035007209701
1026	 0.490385835150412
1027	 0.490519505717571
1028	 0.490631754259734
1029	 0.490800180938434
1030	 0.490965834162543
1031	 0.491153715859127
1032	 0.491412403940435
1033	 0.491618753591772
1034	 0.491918255185881
1035	 0.492196973667945
1036	 0.492363196427134
1037	 0.492547481334102
1038	 0.492715120546674
1039	 0.492858015063817
1040	 0.493015874318571
1041	 0.493131368897904
1042	 0.49313886642712
1043	 0.49326669016178
1044	 0.493352932665917
1045	 0.493368358412386
1046	 0.493535644775504
1047	 0.493680680052665
1048	 0.493847152730396
1049	 0.494054149827305
1050	 0.494336829399442
1051	 0.494625535939783
1052	 0.494726380929734
1053	 0.49489654326026
1054	 0.495106851235264
1055	 0.495285790816556
1056	 0.495333186777913
1057	 0.495525908701237
1058	 0.495705362919803
1059	 0.495796974297153
1060	 0.495990291587451
1061	 0.49620905976184
1062	 0.496439164349538
1063	 0.496675772977248
1064	 0.49689649333895
1065	 0.49707355313487
1066	 0.497221710720223
1067	 0.49745359128137
1068	 0.497644244886358
1069	 0.497826242593896
1070	 0.498007492308317
1071	 0.498182151040752
1072	 0.498344895033342
1073	 0.498517352478267
1074	 0.498710711991708
1075	 0.498868009394615
1076	 0.49902698506631
1077	 0.499197487708628
1078	 0.499358401108255
1079	 0.49961773954363
1080	 0.499892494779696
1081	 0.500052068708757
1082	 0.500198283527993
1083	 0.500367268142396
1084	 0.500473778399674
1085	 0.500625996443916
1086	 0.500849261744549
1087	 0.501047651530422
1088	 0.50125455112909
1089	 0.501402790895323
1090	 0.501586845632331
1091	 0.501798624151121
1092	 0.501926788000234
1093	 0.501998488258128
1094	 0.502042874762261
1095	 0.502101310884344
1096	 0.502255764155407
1097	 0.50247842914494
1098	 0.502635707211985
1099	 0.502782768356422
1100	 0.50296455561424
1101	 0.503134479289118
1102	 0.503273328595314
1103	 0.503435530763109
1104	 0.503605813627481
1105	 0.503735309095581
1106	 0.503873747335256
1107	 0.504023183962314
1108	 0.504168532275721
1109	 0.5042631489413
1110	 0.504362625483247
1111	 0.504543895907292
1112	 0.504709216665447
1113	 0.504824908797556
1114	 0.504884933547583
1115	 0.505018186677664
1116	 0.505145263931839
1117	 0.505287516100872
1118	 0.505516402744424
1119	 0.505668106304245
1120	 0.505780628216804
1121	 0.505869466312426
1122	 0.505959303405714
1123	 0.506097918651007
1124	 0.50625215454934
1125	 0.506393918606336
1126	 0.506512775014541
1127	 0.506586729444853
1128	 0.506667725647864
1129	 0.506738251981736
1130	 0.506849249317316
1131	 0.507019496842308
1132	 0.507152766471704
1133	 0.507294879884235
1134	 0.507404023559047
1135	 0.507476726072341
1136	 0.507562129208593
1137	 0.507636125574795
1138	 0.507723748244397
1139	 0.507846011217577
1140	 0.507931412414332
1141	 0.507952574209904
1142	 0.507975750249875
1143	 0.508018654216148
1144	 0.508048985327804
1145	 0.5080844162756
1146	 0.508148661477269
1147	 0.5082010752614
1148	 0.508232584335987
1149	 0.508280167759237
1150	 0.508317569746328
1151	 0.508407904117823
1152	 0.508551537436234
1153	 0.508637041785474
1154	 0.508748911525805
1155	 0.508840975529227
1156	 0.508895367677024
1157	 0.508886878153598
1158	 0.508991780075105
1159	 0.509148463242826
1160	 0.509330619406088
1161	 0.509584519480583
1162	 0.50978113325521
1163	 0.509988037832135
1164	 0.510165146477652
1165	 0.510290899436831
1166	 0.510471190697973
1167	 0.510667512620793
1168	 0.510855297553845
1169	 0.511068476712337
1170	 0.511268246903886
1171	 0.511466917051709
1172	 0.511658380128239
1173	 0.511827210383525
1174	 0.512023457548178
1175	 0.512250464030108
1176	 0.51242677626709
1177	 0.512633742327191
1178	 0.512798486941057
1179	 0.512896704462963
1180	 0.51301581257631
1181	 0.513171813806644
1182	 0.513372754574824
1183	 0.513505904102912
1184	 0.513618317408471
1185	 0.513766841438614
1186	 0.513880679508167
1187	 0.51402365137016
1188	 0.514241698097488
1189	 0.514407702615759
1190	 0.514544145039432
1191	 0.514675795542033
1192	 0.514794452482266
1193	 0.51491535616548
1194	 0.515043980916049
1195	 0.51512520364864
1196	 0.515202767969508
1197	 0.51533761199654
1198	 0.515454085178859
1199	 0.515560672044776
1200	 0.515684578119859
1201	 0.515838491985622
1202	 0.51596037199311
1203	 0.516077188643192
1204	 0.516189676554308
1205	 0.516265098975155
1206	 0.516382978988031
1207	 0.516551034621113
1208	 0.516660888589006
1209	 0.516739409749681
1210	 0.516851646241853
1211	 0.516943429394588
1212	 0.517043954709815
1213	 0.517168609673702
1214	 0.517332978278545
1215	 0.517406005595257
1216	 0.517477212754925
1217	 0.517561845255085
1218	 0.517634317072833
1219	 0.517720546338506
1220	 0.51783876549728
1221	 0.517908076032134
1222	 0.517925028105646
1223	 0.518017168629737
1224	 0.518153664849409
1225	 0.518228702858626
1226	 0.518330689690177
1227	 0.518394934979261
1228	 0.51835833981757
1229	 0.518390716666674
1230	 0.518456869886313
1231	 0.518528449838706
1232	 0.518625208880699
1233	 0.518711514039283
1234	 0.518797867139356
1235	 0.51889681975483
1236	 0.51898868708015
1237	 0.519067605989741
1238	 0.51918161967517
1239	 0.51932168416964
1240	 0.519430756540306
1241	 0.519561218374047
1242	 0.519646017983903
1243	 0.519674046029161
1244	 0.519749872166496
1245	 0.519840173634484
1246	 0.519909758011164
1247	 0.519966447933961
1248	 0.520058097403046
1249	 0.520151042062344
1250	 0.520248030125544
1251	 0.520406787612548
1252	 0.520515935565093
1253	 0.520579927968231
1254	 0.520656653340049
1255	 0.520729084990372
1256	 0.520782358287734
1257	 0.520868746241072
1258	 0.520972440623605
1259	 0.521064682210089
1260	 0.52116679460087
1261	 0.521263390472089
1262	 0.521363737623911
1263	 0.521439791076288
1264	 0.521504188265925
1265	 0.521574058880671
1266	 0.521609853522669
1267	 0.521685850365456
1268	 0.521818623454301
1269	 0.521890642100911
1270	 0.521959087418232
1271	 0.521999892395926
1272	 0.521978660747052
1273	 0.521983083959207
1274	 0.52197702823507
1275	 0.521990056384424
1276	 0.522008263960606
1277	 0.522042056581246
1278	 0.522089615546587
1279	 0.522174971290719
1280	 0.522195303059776
1281	 0.52220854798309
1282	 0.522199116347473
1283	 0.522139817365811
1284	 0.522100179648072
1285	 0.522068870160394
1286	 0.522017910807304
1287	 0.521938757132145
1288	 0.521887430137391
1289	 0.521825082006086
1290	 0.521792454154138
1291	 0.521811053981265
1292	 0.521786483746278
1293	 0.521755796608874
1294	 0.521720793414948
1295	 0.52167040392166
1296	 0.52160326164664
1297	 0.521521099966932
1298	 0.521453714069525
1299	 0.521388534932818
1300	 0.521288155112551
1301	 0.521220106761744
1302	 0.521183326696346
1303	 0.521103576951295
1304	 0.521006481882845
1305	 0.520919891570599
1306	 0.52082837235771
1307	 0.520721995353444
1308	 0.520590838610085
1309	 0.520513047504076
1310	 0.520452767646347
1311	 0.520378160657876
1312	 0.520327540290955
1313	 0.520282638852202
1314	 0.520236777333755
1315	 0.520173999942897
1316	 0.52014434126733
1317	 0.520072843834004
1318	 0.519958462695539
1319	 0.519836322144532
1320	 0.519679493449809
1321	 0.519557169558118
1322	 0.519434870708722
1323	 0.519310548166818
1324	 0.519205433385271
1325	 0.51911794415099
1326	 0.518966687162172
1327	 0.51882873304727
1328	 0.518722396778006
1329	 0.518636862225582
1330	 0.518521477223086
1331	 0.518445295730594
1332	 0.518299404624587
1333	 0.518093770325856
1334	 0.517903426879047
1335	 0.51767825291735
1336	 0.517491737907746
1337	 0.517301474598085
1338	 0.517146596283922
1339	 0.517048063118366
1340	 0.516906622953141
1341	 0.516778216768784
1342	 0.51661906295873
1343	 0.516439986018087
1344	 0.516231293430128
1345	 0.515993341319434
1346	 0.515751308502244
1347	 0.515498095512752
1348	 0.515215401710352
1349	 0.51490452930564
1350	 0.514596005017873
1351	 0.514288143266835
1352	 0.513971666103649
1353	 0.513667856627807
1354	 0.513365923489899
1355	 0.513051968792512
1356	 0.512699827342005
1357	 0.512404285902265
1358	 0.512134744613139
1359	 0.511865121827009
1360	 0.511610379643668
1361	 0.511368716334624
1362	 0.51115159436167
1363	 0.510901328769699
1364	 0.510690668365645
1365	 0.510401070272751
1366	 0.510062321351064
1367	 0.509703681974752
1368	 0.509345150292415
1369	 0.508890106948227
1370	 0.508439235571652
1371	 0.507845975761286
1372	 0.507152398866107
1373	 0.506366443019333
1374	 0.505482992395791
1375	 0.504500914108891
1376	 0.503433443338432
1377	 0.502285988991755
1378	 0.500956946600868
1379	 0.499463326846283
1380	 0.497806638333019
1381	 0.495988189092792
1382	 0.494087451974699
1383	 0.49212765186818
1384	 0.490105184072444
1385	 0.487951707031483
1386	 0.485943351303399
1387	 0.483836250562196
1388	 0.482032029410507
1389	 0.480338743079673
1390	 0.478847979135435
1391	 0.477564012325768
1392	 0.476353503981368
1393	 0.475339479252052
1394	 0.474280286041634
1395	 0.473372873068663
1396	 0.472303643226397
1397	 0.471256070898005
1398	 0.470042996950289
1399	 0.468725244561728
1400	 0.467294911526869
1401	 0.46573201318899
1402	 0.464104049318323
1403	 0.462314135537075
1404	 0.460556484341663
1405	 0.458736755275577
1406	 0.45692667661828
1407	 0.455068485596783
1408	 0.453283109081707
1409	 0.451491788758547
1410	 0.449812826375326
1411	 0.448281942333154
1412	 0.447045319774997
1413	 0.446180175319871
1414	 0.445562975604186
1415	 0.445359597157743
1416	 0.445421706664809
1417	 0.445654664821899
1418	 0.446189394481391
1419	 0.446752703906775
1420	 0.447556551280852
1421	 0.448241928087412
1422	 0.449014998908363
1423	 0.44968615203443
1424	 0.45031229253365
1425	 0.45092888166784
1426	 0.451513658578977
1427	 0.452091338952593
1428	 0.452641089758674
1429	 0.453203945395576
1430	 0.45375060592791
1431	 0.454321088157329
1432	 0.454914468457463
1433	 0.455481715052866
1434	 0.456069287439793
1435	 0.456614747835796
1436	 0.457105916481534
1437	 0.457633966386296
1438	 0.458163239004967
1439	 0.458680338220988
1440	 0.459234116932376
1441	 0.459741621454778
1442	 0.460223931242769
1443	 0.4606774923194
1444	 0.461096584076718
1445	 0.46150405446122
1446	 0.461898233205094
1447	 0.462239330626176
1448	 0.462542476240472
1449	 0.462842490944871
1450	 0.463147763446773
1451	 0.463442170045622
1452	 0.463790547892412
1453	 0.464116625001622
1454	 0.464331703432809
1455	 0.464526915601563
1456	 0.464696720949437
1457	 0.464779356650594
1458	 0.464929443200601
1459	 0.465096140964455
1460	 0.465266582191424
1461	 0.465437424678518
1462	 0.46563242754946
1463	 0.465835670230855
1464	 0.466063841183596
1465	 0.46630842341448
1466	 0.46658335142457
1467	 0.466891384138687
1468	 0.467212888003627
1469	 0.467536755521652
1470	 0.467920681747188
1471	 0.468353149726282
1472	 0.468781632537823
1473	 0.469245589648119
1474	 0.46972995254249
1475	 0.470209309629722
1476	 0.470722866580338
1477	 0.4713196961348
1478	 0.471854926537641
1479	 0.47238116291142
1480	 0.472891223516764
1481	 0.473365635653536
1482	 0.473839656575861
1483	 0.474293199419294
1484	 0.474768811965356
1485	 0.47523694970218
1486	 0.475725445346621
1487	 0.476282604017114
1488	 0.476764048001911
1489	 0.47719455490833
1490	 0.477644628717449
1491	 0.478052667675982
1492	 0.478475944194182
1493	 0.478953767114404
1494	 0.479456310996554
1495	 0.479917755914079
1496	 0.48035299264448
1497	 0.480777966348595
1498	 0.481165614183835
1499	 0.481546052394929
1500	 0.481927069880652
1501	 0.482329857589012
1502	 0.48274426993471
1503	 0.483158287332984
1504	 0.483587022019324
1505	 0.483965826712908
1506	 0.484329601017958
1507	 0.484702682189386
1508	 0.48507175630972
1509	 0.48544232203506
1510	 0.485823763896056
1511	 0.486173512784716
1512	 0.4865160631705
1513	 0.486841704006799
1514	 0.487138277779606
1515	 0.487437660440175
1516	 0.487715934813721
1517	 0.488026580303548
1518	 0.48833761254776
1519	 0.48867702549179
1520	 0.489070082840896
1521	 0.489399647595375
1522	 0.489723313123236
1523	 0.490015514107292
1524	 0.49026495474866
1525	 0.490521320185239
1526	 0.490768713862286
1527	 0.491005080324073
1528	 0.491198825569986
1529	 0.491450292016014
1530	 0.491736501440717
1531	 0.491989639488666
1532	 0.492265846829364
1533	 0.49252094656871
1534	 0.492741881615312
1535	 0.492970567203633
1536	 0.493203250802991
1537	 0.493432695175495
1538	 0.493650877207279
1539	 0.49387142562421
1540	 0.49410118477026
1541	 0.494321983159881
1542	 0.494536142017055
1543	 0.494740720882185
1544	 0.494947340829074
1545	 0.495140305461381
1546	 0.495309286074783
1547	 0.495483563716167
1548	 0.495647279993068
1549	 0.495818416901322
1550	 0.495991801656977
1551	 0.496178208816202
1552	 0.496394711507838
1553	 0.496574562438048
1554	 0.496748411365549
1555	 0.496906010460357
1556	 0.497006894033306
1557	 0.49714761352344
1558	 0.497301619935518
1559	 0.497459824866648
1560	 0.497671536005208
1561	 0.497827394367088
1562	 0.497946122195929
1563	 0.4980739866658
1564	 0.498137500490704
1565	 0.49826536479373
1566	 0.498461261011686
1567	 0.498623463266507
1568	 0.498809021057266
1569	 0.498971920490192
1570	 0.499080033485326
1571	 0.499223369731266
1572	 0.499410110081304
1573	 0.499555600296448
1574	 0.499685811831199
1575	 0.499823796932385
1576	 0.499937000912181
1577	 0.500018263834523
1578	 0.500118711606218
1579	 0.500240855247351
1580	 0.500350527543665
1581	 0.500457531883217
1582	 0.500594673142536
1583	 0.500729163785347
1584	 0.500867636214089
1585	 0.501027307071028
1586	 0.501148714042765
1587	 0.501239013532514
1588	 0.501306099123714
1589	 0.501395176990956
1590	 0.501502513629537
1591	 0.501602960077795
1592	 0.501725572333057
1593	 0.501811748109809
1594	 0.501885953094031
1595	 0.501974435111065
1596	 0.502017733813813
1597	 0.50205746182812
1598	 0.502116713866849
1599	 0.502177661586498
1600	 0.502271989632816
1601	 0.502365149634891
1602	 0.502445186040681
1603	 0.502512525731288
1604	 0.502546843216609
1605	 0.502625761278909
1606	 0.502718159069017
1607	 0.502794338795421
1608	 0.502900596642786
1609	 0.50296161491599
1610	 0.503020022122529
1611	 0.503114268647899
1612	 0.503194747981505
1613	 0.503302076195976
1614	 0.503398200043236
1615	 0.503467962502761
1616	 0.503540179477432
1617	 0.503601966058411
1618	 0.50365253958869
1619	 0.503681241801517
1620	 0.503734923867588
1621	 0.50378628907653
1622	 0.503858129611927
1623	 0.503953517580301
1624	 0.504028150313858
1625	 0.504106014415079
1626	 0.50416957489992
1627	 0.504214584997984
1628	 0.504281986146723
1629	 0.504353548654138
1630	 0.504461449403012
1631	 0.504615287030252
1632	 0.504735592921175
1633	 0.504834853486622
1634	 0.50490438067581
1635	 0.504934793584982
1636	 0.504965468520909
1637	 0.505011261020223
1638	 0.505063415454603
1639	 0.505103602611189
1640	 0.505101606177393
1641	 0.505129678309193
1642	 0.50514524470643
1643	 0.505175945224821
1644	 0.505249792988322
1645	 0.505314925001958
1646	 0.505385527364836
1647	 0.505440773990961
1648	 0.505479302590333
1649	 0.505532507571692
1650	 0.505584272893035
1651	 0.505632919745464
1652	 0.505678390664748
1653	 0.505747451721734
1654	 0.505845065229318
1655	 0.505909798583082
1656	 0.505996841666592
1657	 0.506047010030089
1658	 0.506012036914302
1659	 0.50602976569423
1660	 0.5060794480977
1661	 0.506105390183653
1662	 0.506172204042021
1663	 0.506186491196408
1664	 0.506144378225762
1665	 0.506104771862137
1666	 0.506011605448739
1667	 0.505969265220919
1668	 0.505978474050481
1669	 0.505938886874013
1670	 0.505873773162653
1671	 0.505849065592231
1672	 0.505839428448839
1673	 0.505790710516479
1674	 0.505745747051802
1675	 0.505717158584104
1676	 0.505635569348246
1677	 0.505591741428353
1678	 0.505612577553212
1679	 0.505614056398891
1680	 0.505628540155968
1681	 0.505600665199956
1682	 0.505535311618664
1683	 0.50550614680986
1684	 0.505436539321711
1685	 0.50542348820149
1686	 0.505530698761428
1687	 0.505517094201519
1688	 0.505438810290372
1689	 0.505393977346571
1690	 0.505281980270845
1691	 0.505227277429415
1692	 0.505254970690337
1693	 0.505223282125179
1694	 0.505170607672909
1695	 0.505113007779509
1696	 0.505007609093069
1697	 0.504969723872138
1698	 0.504981884177101
1699	 0.504944180768524
1700	 0.504928003929071
1701	 0.504878581020059
1702	 0.504771556462934
1703	 0.504690862582278
1704	 0.504617988367805
1705	 0.504544031154739
1706	 0.50446508373965
1707	 0.504387992783385
1708	 0.504318896717526
1709	 0.504256717624085
1710	 0.504207815677521
1711	 0.504112482242217
1712	 0.503997186653712
1713	 0.503892778073426
1714	 0.503758469204367
1715	 0.503640699259145
1716	 0.503559002901995
1717	 0.503427205724048
1718	 0.503243792885686
1719	 0.503119756819185
1720	 0.50303969009729
1721	 0.502929347930067
1722	 0.502816507212713
1723	 0.502725570443209
1724	 0.502571519996494
1725	 0.502428186715214
1726	 0.50231836031545
1727	 0.502152876424607
1728	 0.501982246776238
1729	 0.501790332446169
1730	 0.50157863233436
1731	 0.501419632892387
1732	 0.501242642670173
1733	 0.501051083988821
1734	 0.500900279154928
1735	 0.500691895654772
1736	 0.500507610880018
1737	 0.500381647383341
1738	 0.500214921420673
1739	 0.499994640224608
1740	 0.499837356658754
1741	 0.499734323152217
1742	 0.499579507612883
1743	 0.499437047240334
1744	 0.499266195098958
1745	 0.499015826480137
1746	 0.498822080190676
1747	 0.498693177174498
1748	 0.498502689648386
1749	 0.498269330232599
1750	 0.498084434790358
1751	 0.49788650912354
1752	 0.497694427106767
1753	 0.497572703452043
1754	 0.497362233018028
1755	 0.497098854133656
1756	 0.496838747538895
1757	 0.496511088328786
1758	 0.496285660189781
1759	 0.496110488015635
1760	 0.495916396717983
1761	 0.495734049498096
1762	 0.495542438707228
1763	 0.495345937291199
1764	 0.495162801256202
1765	 0.494982245821219
1766	 0.49481274938852
1767	 0.494613116921907
1768	 0.494407072636099
1769	 0.494259496943645
1770	 0.494119000125652
1771	 0.493908047771866
1772	 0.493674116056496
1773	 0.493468585865187
1774	 0.493231200514299
1775	 0.493072651059667
1776	 0.492959803572937
1777	 0.492807969804353
1778	 0.492667438972498
1779	 0.492446338721203
1780	 0.492303638561773
1781	 0.492177322403671
1782	 0.492062356300117
1783	 0.491965226636147
1784	 0.491898516804886
1785	 0.491799486284209
1786	 0.491686055934864
1787	 0.491594170902513
1788	 0.491479733369704
1789	 0.491427501530125
1790	 0.491451949504666
1791	 0.491390110870089
1792	 0.491316772730016
1793	 0.491206589741756
1794	 0.49108036622521
1795	 0.491035847276249
1796	 0.491033369923835
1797	 0.491001250962323
1798	 0.490978510087846
1799	 0.49095006988697
1800	 0.490898418683283
1801	 0.49088765083252
1802	 0.490898029135657
1803	 0.490893191915848
1804	 0.490879618824831
1805	 0.490853510918185
1806	 0.490781019643231
1807	 0.490709012452151
1808	 0.490694173489221
1809	 0.490686060584396
1810	 0.490688124521637
1811	 0.490720930632946
1812	 0.490709719772329
1813	 0.49064979300067
1814	 0.49065998125308
1815	 0.490739444135027
1816	 0.490704732354223
1817	 0.490612101120098
1818	 0.490543265575407
1819	 0.49047851822576
1820	 0.490443449129026
1821	 0.490443489819871
1822	 0.490413395571349
1823	 0.490348732602336
1824	 0.490327295487053
1825	 0.490346057065411
1826	 0.490286256953213
1827	 0.490219431237895
1828	 0.490172356402268
1829	 0.490031657997244
1830	 0.489909603039041
1831	 0.488688073830164
1832	 0.488637154434602
1833	 0.488521780089588
1834	 0.488493038400548
1835	 0.488494134427715
1836	 0.488477244839395
1837	 0.488521630724664
1838	 0.488503267768296
1839	 0.488495898721463
1840	 0.488381803750153
1841	 0.488117015593631
1842	 0.487913387954156
1843	 0.487765984424334
1844	 0.487545270776709
1845	 0.487443853193752
1846	 0.487560947150084
1847	 0.487493328110166
1848	 0.487386179311625
1849	 0.487216869593727
1850	 0.487006462780216
1851	 0.486779019784221
1852	 0.486615373264711
1853	 0.486427391263384
1854	 0.486132927281758
1855	 0.485822707793329
1856	 0.485397704283403
1857	 0.484855058339234
1858	 0.484296193705731
1859	 0.483733642724622
1860	 0.483009484895334
1861	 0.482193288811719
1862	 0.481266084243949
1863	 0.48027603461576
1864	 0.479240965758336
1865	 0.478043748200901
1866	 0.47678227445775
1867	 0.475337125572822
1868	 0.473693848933609
1869	 0.471948539865969
1870	 0.470183731155866
1871	 0.468303809451497
1872	 0.466265387761373
1873	 0.464140556449709
1874	 0.461852853600952
1875	 0.459477270395399
1876	 0.457049505467331
1877	 0.454428740398915
1878	 0.451627846455955
1879	 0.448668109921456
1880	 0.445531843351433
1881	 0.442237317440604
1882	 0.438753469754813
1883	 0.435020539338247
1884	 0.431128784678839
1885	 0.427028473621174
1886	 0.422672391968318
1887	 0.41815135184704
1888	 0.413488016345873
1889	 0.408640913215478
1890	 0.403547930088092
1891	 0.398375468269909
1892	 0.393090613237315
1893	 0.387692110193396
1894	 0.382378130736119
1895	 0.377032518712908
1896	 0.371783635881083
1897	 0.366726920167762
1898	 0.361739752728921
1899	 0.357058843715733
1900	 0.35262321843288
1901	 0.34843707584445
1902	 0.344472271049577
1903	 0.340893671355576
1904	 0.337549441727871
1905	 0.334622538410423
1906	 0.332051600514702
1907	 0.329745852897892
1908	 0.32785753081175
1909	 0.326271207429111
1910	 0.325004905037621
1911	 0.323979141477158
1912	 0.323263345800835
1913	 0.322743821209094
1914	 0.322524687112285
1915	 0.322364047341369
1916	 0.322326670763134
1917	 0.322476591553562
1918	 0.322626784347689
1919	 0.322991704672857
1920	 0.323540992634859
1921	 0.324127351592953
1922	 0.324746059449442
1923	 0.32542572182735
1924	 0.326147411197033
1925	 0.326966224640091
1926	 0.327795335003375
1927	 0.328593768255009
1928	 0.329411325350067
1929	 0.330117675421233
1930	 0.330745997186755
1931	 0.331479523888627
1932	 0.332223770587546
1933	 0.332988671285757
1934	 0.333731653687124
1935	 0.334541424468132
1936	 0.335206925687587
1937	 0.335830074925372
1938	 0.336506131970669
1939	 0.337164856654164
1940	 0.337906343893892
1941	 0.338699619546551
1942	 0.339450834356489
1943	 0.340222769798474
1944	 0.341090955195982
1945	 0.341898906511921
1946	 0.342697782199555
1947	 0.343460739245146
1948	 0.344199946821266
1949	 0.344896249973208
1950	 0.34564192186185
1951	 0.346504126074604
1952	 0.347331895244373
1953	 0.348106211164904
1954	 0.348902950309428
1955	 0.349677365512832
1956	 0.350497127519113
1957	 0.351421773399539
1958	 0.352284207463172
1959	 0.353102519644388
1960	 0.353992280370019
1961	 0.354884797205381
1962	 0.355796529918931
1963	 0.356835558527672
1964	 0.357859575464052
1965	 0.358876491426445
1966	 0.359838149818408
1967	 0.360749386958919
1968	 0.361685623509884
1969	 0.362622785774634
1970	 0.36352890361026
1971	 0.364502303460137
1972	 0.365522961031734
1973	 0.36652044684656
1974	 0.36752086809405
1975	 0.368610894851575
1976	 0.369583777463439
1977	 0.370539407791996
1978	 0.371563339491007
1979	 0.37253059366824
1980	 0.37352302889442
1981	 0.374474260439777
1982	 0.375469243626037
1983	 0.376425722505009
1984	 0.377482596293491
1985	 0.378669167390261
1986	 0.379781658162826
1987	 0.380940880138989
1988	 0.381984251207375
1989	 0.383031414731821
1990	 0.384034447121491
1991	 0.385000855636016
1992	 0.386057904636472
1993	 0.387051791310529
1994	 0.38803075763026
1995	 0.389035471863507
1996	 0.390023992701112
1997	 0.391074330784565
1998	 0.392202172308753
1999	 0.393265589271555
2000	 0.394359527906502
2001	 0.395412182618708
2002	 0.396402156259854
2003	 0.397325943070032
2004	 0.398265115628594
2005	 0.399223907184003
2006	 0.400112142797954
2007	 0.401010048906768
2008	 0.401982502098382
2009	 0.402998453158019
2010	 0.404002534550585
2011	 0.405130493565429
2012	 0.406114305300088
2013	 0.407018472271633
2014	 0.407904678514549
2015	 0.408737470722687
2016	 0.409523346202177
2017	 0.41030577270158
2018	 0.411073190515175
2019	 0.411861430950775
2020	 0.412698882456272
2021	 0.413495398209147
2022	 0.414282098894151
2023	 0.415094858038617
2024	 0.415900606341105
2025	 0.416709495673413
2026	 0.417633902831072
2027	 0.418400955904915
2028	 0.419087795354266
2029	 0.419698585257669
2030	 0.420339141828282
2031	 0.421051099421479
2032	 0.421788000345499
2033	 0.422581488845974
2034	 0.423302672122366
2035	 0.423917126214843
2036	 0.424551054207964
2037	 0.425195451910263
2038	 0.425767206951052
2039	 0.42624102086375
2040	 0.426793148237476
2041	 0.427332778174034
2042	 0.427849722998094
2043	 0.428376238915918
2044	 0.428970836025625
2045	 0.429442153818739
2046	 0.429978199213728
2047	 0.430503151134939
2048	 0.430982316998731
2049	 0.431499011246605
2050	 0.432018239804879
2051	 0.432491022768459
2052	 0.43293799686675
2053	 0.433430565899019
2054	 0.433867377563665
2055	 0.434359467289603
2056	 0.43492263695636
2057	 0.435470816482189
2058	 0.436023011344739
2059	 0.436618402228835
2060	 0.437112593248184
2061	 0.437636340911781
2062	 0.438044242982089
2063	 0.438308633367303
2064	 0.438729387660502
2065	 0.439171472748425
2066	 0.439598989394772
2067	 0.440085939110689
2068	 0.440554932613237
2069	 0.440999055145495
2070	 0.441428374906978
2071	 0.441845437858715
2072	 0.442300988840779
2073	 0.442780284984396
2074	 0.443206769764394
2075	 0.443649516490267
2076	 0.444059124758712
2077	 0.444469435411659
2078	 0.444874623536953
2079	 0.445159119130244
2080	 0.445558784288421
2081	 0.445926257898605
2082	 0.446183940386686
2083	 0.446537491498271
2084	 0.447020446714189
2085	 0.447401263215743
2086	 0.447785272861125
2087	 0.448117283563687
2088	 0.448382367798707
2089	 0.448668608641772
2090	 0.448868543125831
2091	 0.449142711501656
2092	 0.449493268842707
2093	 0.449817932449918
2094	 0.45010355659698
2095	 0.450432780627426
2096	 0.450631284926194
2097	 0.450813173816965
2098	 0.451101750579676
2099	 0.45142012382296
2100	 0.451761097392015
2101	 0.452267817302551
2102	 0.452589373409077
2103	 0.452818329703897
2104	 0.453057646173679
2105	 0.453182980664988
2106	 0.453381178429042
2107	 0.453620371689769
2108	 0.453851470152217
2109	 0.454035826074149
2110	 0.454357189618916
2111	 0.454677468169252
2112	 0.454975188962119
2113	 0.455359451432426
2114	 0.455701886724583
2115	 0.456040456364436
2116	 0.456413165986103
2117	 0.456693934321975
2118	 0.456882758197653
2119	 0.457134772033528
2120	 0.457307952948117
2121	 0.45758446408741
2122	 0.45802287811354
2123	 0.458341302367032
2124	 0.458651238024596
2125	 0.458913259107067
2126	 0.459118861881007
2127	 0.45927524852512
2128	 0.459410142431133
2129	 0.459549460831837
2130	 0.459663458291989
2131	 0.45970443564354
2132	 0.459704649880273
2133	 0.459695341428304
2134	 0.459588930903617
2135	 0.459357825647409
2136	 0.459194360691084
2137	 0.459018956325057
2138	 0.458796833916497
2139	 0.458610709994726
2140	 0.458312785742555
2141	 0.457910114761565
2142	 0.457506398868358
2143	 0.457031533125431
2144	 0.456574876473351
2145	 0.456165123530528
2146	 0.455642349832584
2147	 0.455023848840849
2148	 0.454475493316375
2149	 0.453811010453322
2150	 0.452972659914851
2151	 0.452265659147925
2152	 0.451545753392311
2153	 0.450849421724188
2154	 0.450227169642411
2155	 0.449514350911416
2156	 0.448776101392334
2157	 0.448017748392226
2158	 0.447144775985491
2159	 0.446392909848983
2160	 0.445642653944949
2161	 0.444981773114627
2162	 0.444483454677679
2163	 0.443873804968665
2164	 0.443268100230632
2165	 0.442668894445814
2166	 0.441977518720334
2167	 0.441371333806863
2168	 0.440875491902857
2169	 0.440262814101037
2170	 0.439812520710144
2171	 0.439334078351882
2172	 0.438839219335989
2173	 0.438427244298754
2174	 0.437906130889014
2175	 0.437309021761331
2176	 0.436737530280276
2177	 0.43615584243617
2178	 0.435545883687962
2179	 0.434878479318217
2180	 0.434268524370735
2181	 0.43368820079812
2182	 0.433049395695847
2183	 0.43250155352405
2184	 0.431799016677773
2185	 0.430981803393393
2186	 0.430119092764432
2187	 0.429068915959525
2188	 0.428134032139579
2189	 0.42723693323264
2190	 0.426283373869003
2191	 0.425420725561046
2192	 0.424598699984761
2193	 0.423608699725832
2194	 0.422662330618855
2195	 0.421613165170342
2196	 0.420514450259906
2197	 0.419380173338872
2198	 0.418231774961922
2199	 0.416941958338049
2200	 0.415552802995717
2201	 0.414111367236819
2202	 0.412478139554303
2203	 0.411043603032494
2204	 0.409476336862072
2205	 0.408320122676605
2206	 0.40727872022672
2207	 0.406578008089536
2208	 0.406252341370615
2209	 0.406083401304993
2210	 0.406123655872024
2211	 0.406457559038297
2212	 0.407081896638816
2213	 0.407869076220761
2214	 0.409148973682285
2215	 0.410234658329333
2216	 0.411477486272549
2217	 0.41252585731601
2218	 0.4134424692308
2219	 0.414252924778545
2220	 0.414803540607317
2221	 0.415329774705469
2222	 0.4157520367619
2223	 0.416016398349236
2224	 0.416327521058722
2225	 0.416646262230339
2226	 0.416853704273302
2227	 0.417029886629793
2228	 0.417073525978809
2229	 0.416948598719082
2230	 0.416909420185927
2231	 0.416842067813936
2232	 0.416737772089074
2233	 0.416633970581273
2234	 0.416516070260978
2235	 0.416265811566943
2236	 0.416132936099567
2237	 0.416168959838227
2238	 0.416016985796085
2239	 0.415790959522034
2240	 0.415603289999671
2241	 0.415248810174719
2242	 0.415055672423113
2243	 0.415030411746971
2244	 0.414948142226221
2245	 0.414904124482175
2246	 0.414820407985687
2247	 0.414794047190602
2248	 0.414606835700439
2249	 0.414553723108716
2250	 0.414712570316051
2251	 0.41469981200796
2252	 0.414742212228829
2253	 0.414732145462917
2254	 0.414483733028706
2255	 0.414342985451248
2256	 0.414324154667123
2257	 0.414339773582058
2258	 0.4144140397924
2259	 0.414533286003772
2260	 0.414750242381794
2261	 0.414908937446491
2262	 0.415105044661514
2263	 0.415194948076491
2264	 0.41520896291481
2265	 0.415247230861334
2266	 0.415343041494042
2267	 0.415258910019649
2268	 0.41502688234527
2269	 0.414906370018238
2270	 0.414678700440049
2271	 0.414495270167841
2272	 0.414556379133693
2273	 0.414347183442658
2274	 0.413979471892635
2275	 0.413529190607548
2276	 0.412890714821118
2277	 0.412322424755829
2278	 0.411677976430429
2279	 0.411096908206019
2280	 0.410635087900039
2281	 0.409968855031963
2282	 0.409282467202361
2283	 0.408382485526953
2284	 0.40742536939439
2285	 0.406670224997766
2286	 0.405954338642863
2287	 0.40532377700774
2288	 0.404651033557366
2289	 0.403993175858054
2290	 0.403392892589689
2291	 0.402874419264608
2292	 0.402438898354796
2293	 0.402030491267154
2294	 0.401713818494174
2295	 0.401387649185947
2296	 0.401082207970151
2297	 0.400761920758714
2298	 0.400160158861472
2299	 0.399541881444449
2300	 0.399067489465709
2301	 0.398509188955093
2302	 0.397818163808183
2303	 0.397172718481109
2304	 0.396290126733401
2305	 0.395038341022827
2306	 0.394086522885798
2307	 0.393128868289583
2308	 0.392349022514127
2309	 0.391776011965204
2310	 0.391078671042009
2311	 0.39038222674204
2312	 0.389807796260284
2313	 0.389151790842239
2314	 0.388794202395986
2315	 0.388583199499582
2316	 0.388583809498467
2317	 0.388898112078737
2318	 0.38916762081245
2319	 0.389626216585394
2320	 0.390085105708221
2321	 0.390662494431162
2322	 0.391007782697531
2323	 0.39125254225678
2324	 0.391631869781311
2325	 0.391917151921908
2326	 0.392214910187203
2327	 0.392795451782473
2328	 0.392967267378515
2329	 0.392838259698028
2330	 0.3927646875
2331	 0.392492066323833
2332	 0.392317799830681
2333	 0.392186491559851
2334	 0.391946822929894
2335	 0.391664288908326
2336	 0.391431201531641
2337	 0.39116923718771
2338	 0.390881998600682
2339	 0.390691911680083
2340	 0.390328314957452
2341	 0.389810541267467
2342	 0.389284067822902
2343	 0.388784383869999
2344	 0.388291383722437
2345	 0.387689397494883
2346	 0.387078066760555
2347	 0.386336461402571
2348	 0.385410383189479
2349	 0.384686650084234
2350	 0.384251185849649
2351	 0.384166255792188
2352	 0.383807655454543
2353	 0.383312049410514
2354	 0.382810813021617
2355	 0.381712943277505
2356	 0.381217518785959
2357	 0.381103449307585
2358	 0.380588959135939
2359	 0.380310480203998
2360	 0.379929420179774
2361	 0.37948799899816
2362	 0.379086326714938
2363	 0.378654850107422
2364	 0.378184570120535
2365	 0.377439870139928
2366	 0.376767166054465
2367	 0.376208487012585
2368	 0.375605396891583
2369	 0.374949591849653
2370	 0.374256085351836
2371	 0.373640053732233
2372	 0.372948733727535
2373	 0.372236568706565
2374	 0.371488204585366
2375	 0.370937402607403
2376	 0.370523950709885
2377	 0.36976068655461
2378	 0.36914380083191
2379	 0.368385087192684
2380	 0.367476349010052
2381	 0.366946929450622
2382	 0.366329462215163
2383	 0.365517107833701
2384	 0.36478125460397
2385	 0.364096028215327
2386	 0.363364497510918
2387	 0.362750442854152
2388	 0.362317225310948
2389	 0.361894914400231
2390	 0.361562793598001
2391	 0.361626824240734
2392	 0.361740178322047
2393	 0.361740849589333
2394	 0.361673373159811
2395	 0.361128220550147
2396	 0.360347082524838
2397	 0.359751216399457
2398	 0.359144753934039
2399	 0.358765646628808
2400	 0.358630923346793
2401	 0.358418691904865
2402	 0.358317429820943
2403	 0.358169654827629
2404	 0.357884004839437
2405	 0.357376016227483
2406	 0.356868376395563
2407	 0.356478257990054
2408	 0.356045967483669
2409	 0.355616653880534
2410	 0.355266630754248
2411	 0.354851033267265
2412	 0.353613921115692
2413	 0.352325013877484
2414	 0.351103327611131
2415	 0.349913266658105
2416	 0.34964303783425
2417	 0.349104379584785
2418	 0.348291122985369
2419	 0.347391352785349
2420	 0.346245479672266
2421	 0.345233758483086
2422	 0.344627227913153
2423	 0.344151705278235
2424	 0.343592698390694
2425	 0.343679825625765
2426	 0.343068382754304
2427	 0.341913577302816
2428	 0.341083486570256
2429	 0.339904222950985
2430	 0.339023049444115
2431	 0.338871439839241
2432	 0.338044030317189
2433	 0.336957111364936
2434	 0.335730819054833
2435	 0.333472671534048
2436	 0.332439672472798
2437	 0.332202543868278
2438	 0.331537440968496
2439	 0.33095598589985
2440	 0.329809181916731
2441	 0.328914001275025
2442	 0.328252732166326
2443	 0.327749812450711
2444	 0.327202411523839
2445	 0.326267028549544
2446	 0.325801979210613
2447	 0.324869804420334
2448	 0.323689034088568
2449	 0.322578213828528
2450	 0.32086900523807
2451	 0.32039424911294
2452	 0.320776363742857
2453	 0.32075150120644
2454	 0.320766312804094
2455	 0.319924153049396
2456	 0.318014030137034
2457	 0.316446320027705
2458	 0.315155548791111
2459	 0.313744770070752
2460	 0.312841912259469
2461	 0.31245200664012
2462	 0.311701674921933
2463	 0.311014757878623
2464	 0.310424484627684
2465	 0.309127851573932
2466	 0.308826043840084
2467	 0.309224774454617
2468	 0.309267041830789
2469	 0.309256237695253
2470	 0.307988298931401
2471	 0.306835522644814
2472	 0.305898472917688
2473	 0.304668899852634
2474	 0.304170066745715
2475	 0.303206862018818
2476	 0.302164279228952
2477	 0.301806891224876
2478	 0.30169555995874
2479	 0.30074491878015
2480	 0.300589892195506
2481	 0.299072766628311
2482	 0.298802192727619
2483	 0.299953823592748
2484	 0.29892009245076
2485	 0.298472565828668
2486	 0.298237857680667
2487	 0.296997293794067
2488	 0.297177900183748
2489	 0.297808616625302
2490	 0.297325341894244
2491	 0.296133526183478
2492	 0.294846542780359
2493	 0.293586354714691
2494	 0.292893279797674
2495	 0.292694007927502
2496	 0.292471933962917
2497	 0.292855317215971
2498	 0.292783595040403
2499	 0.292590811096932
2500	 0.2933492026429
