Wavelength	signature0022.asd
350	 0.163393487668069
351	 0.161223564609462
352	 0.157531112189108
353	 0.158036960075477
354	 0.166102365275981
355	 0.160596088533655
356	 0.155896261836665
357	 0.155786732166573
358	 0.154779405325285
359	 0.156679514692942
360	 0.159928541564789
361	 0.162045035958224
362	 0.160475610749368
363	 0.156749674918547
364	 0.155894213185273
365	 0.158886994163239
366	 0.155381576752746
367	 0.156277907528353
368	 0.157509019386334
369	 0.153580324561035
370	 0.155675483821099
371	 0.157531573748349
372	 0.158714587572398
373	 0.161833215969747
374	 0.159910129984557
375	 0.158838449058253
376	 0.159814572498529
377	 0.157477247313447
378	 0.153830404926356
379	 0.154486177246038
380	 0.159734720015287
381	 0.157593266116831
382	 0.156476892846187
383	 0.157770428199938
384	 0.16017611550509
385	 0.161032871078508
386	 0.161556270234104
387	 0.161172225820736
388	 0.158903090283313
389	 0.158991532226754
390	 0.160348769686518
391	 0.161866190948039
392	 0.163059605232433
393	 0.162049156541132
394	 0.162171270448121
395	 0.16461256572163
396	 0.164075234443547
397	 0.163973033736156
398	 0.164257049404228
399	 0.164156057530961
400	 0.164521132075048
401	 0.164358175042432
402	 0.164632238002849
403	 0.166834992208482
404	 0.165728801259666
405	 0.164643093193465
406	 0.165285814860598
407	 0.166181972152677
408	 0.167460496850485
409	 0.168164219689636
410	 0.168015835113727
411	 0.168967793133943
412	 0.168335123524571
413	 0.167682655073355
414	 0.169234963047156
415	 0.169560790953778
416	 0.169570847735267
417	 0.169994377834966
418	 0.171079310382053
419	 0.171822409048718
420	 0.172044194481371
421	 0.172062500644631
422	 0.172797118143511
423	 0.173389747675015
424	 0.17386562651403
425	 0.174428154307039
426	 0.174936330862337
427	 0.175739065063621
428	 0.176416878426967
429	 0.176299415279571
430	 0.176673576076217
431	 0.177791138593555
432	 0.17920883176224
433	 0.179792239480384
434	 0.180471485820448
435	 0.180922419282755
436	 0.180982837535137
437	 0.18180843133172
438	 0.182285840272929
439	 0.182800684594925
440	 0.184122347660623
441	 0.18455485142813
442	 0.184949795710038
443	 0.185488527053617
444	 0.185467863212429
445	 0.186500098197025
446	 0.187488635940934
447	 0.187698935926952
448	 0.18857578105259
449	 0.189809703665088
450	 0.190707234924173
451	 0.190730592326286
452	 0.191155810711025
453	 0.191956452211452
454	 0.192725523396756
455	 0.192882497036291
456	 0.193860426861908
457	 0.194755246871272
458	 0.194991869359361
459	 0.195582143883142
460	 0.195734243784236
461	 0.195988802771336
462	 0.196983321249387
463	 0.197590619067904
464	 0.197799526004739
465	 0.198102049735314
466	 0.199194154440714
467	 0.199163282885251
468	 0.199302407036577
469	 0.20020023442611
470	 0.20010240197201
471	 0.200432080057346
472	 0.201004376305577
473	 0.201294314413937
474	 0.201665061759318
475	 0.202237396519489
476	 0.202841060032754
477	 0.203141939125184
478	 0.203639846024252
479	 0.204211583775531
480	 0.204736211844771
481	 0.205281886549429
482	 0.205595587954862
483	 0.205951749269499
484	 0.20663090828489
485	 0.207230286748898
486	 0.207595244665526
487	 0.207983188675969
488	 0.208866135369316
489	 0.209510637546338
490	 0.209925687616038
491	 0.210281201364936
492	 0.210810009338128
493	 0.211643994601464
494	 0.212321642391757
495	 0.21249325306933
496	 0.213107984982438
497	 0.213845602326614
498	 0.214526686322217
499	 0.215141071478792
500	 0.216005767255193
501	 0.216695535164669
502	 0.217075378497791
503	 0.217744512073394
504	 0.218444268242802
505	 0.219206145005058
506	 0.220044461004476
507	 0.220502341230281
508	 0.220990395354553
509	 0.221681915306422
510	 0.222496800399264
511	 0.223108159446499
512	 0.223683973048854
513	 0.224381620745074
514	 0.225181320703123
515	 0.225857006019699
516	 0.226442214952879
517	 0.227085474886542
518	 0.227994628553231
519	 0.228619293396286
520	 0.229058537456096
521	 0.229992365619118
522	 0.230733059587159
523	 0.231423309644034
524	 0.232200456872736
525	 0.232819723128784
526	 0.233486527064716
527	 0.234319498635728
528	 0.235325022276811
529	 0.236119014554236
530	 0.236802230428167
531	 0.237503473961721
532	 0.238335118852382
533	 0.239271188607953
534	 0.240148158092979
535	 0.240899899405138
536	 0.241785854018951
537	 0.242685393269887
538	 0.243617939355038
539	 0.244651183424248
540	 0.245718379644493
541	 0.246692107264538
542	 0.247607935740732
543	 0.248698576691813
544	 0.249817770474974
545	 0.250993792079169
546	 0.25225627880741
547	 0.253511861381907
548	 0.254776446420121
549	 0.256031566103557
550	 0.257263376576819
551	 0.258693704967431
552	 0.260175420583155
553	 0.261594677561939
554	 0.262960945035922
555	 0.264281078293498
556	 0.265668535086002
557	 0.267206687668873
558	 0.268726779792285
559	 0.270264338991564
560	 0.271809417364973
561	 0.273321383758018
562	 0.274857897439414
563	 0.276422613999523
564	 0.278004553855791
565	 0.279580723259937
566	 0.281166612931648
567	 0.282794298954321
568	 0.284490722368145
569	 0.286244869492329
570	 0.287839911016077
571	 0.289252537213327
572	 0.290663536068777
573	 0.292178788264393
574	 0.293855193176375
575	 0.29567870505326
576	 0.297504139028666
577	 0.29933162185472
578	 0.301118104775226
579	 0.302813146833034
580	 0.304432491105557
581	 0.306046262795379
582	 0.307701191634089
583	 0.309397787038751
584	 0.310946832532771
585	 0.312394968826119
586	 0.313813604187584
587	 0.31515082030337
588	 0.31660705853612
589	 0.318055999172781
590	 0.319236543613256
591	 0.320460435113162
592	 0.321803528405286
593	 0.323158645645576
594	 0.324182513356586
595	 0.32517108825387
596	 0.326088083533229
597	 0.32687514363894
598	 0.327768661143417
599	 0.328680403540372
600	 0.329526941434018
601	 0.330252045072368
602	 0.33107813855534
603	 0.331982749669484
604	 0.332877632294097
605	 0.333611796000975
606	 0.334322625758953
607	 0.335028882024509
608	 0.335710997818534
609	 0.336368690409818
610	 0.337043044021137
611	 0.337758085994335
612	 0.33849939432011
613	 0.338958852862868
614	 0.339378279786874
615	 0.339974358325845
616	 0.34068459798822
617	 0.341252571264674
618	 0.341754749972746
619	 0.342374668685945
620	 0.342957783040547
621	 0.343508832615604
622	 0.344063386581952
623	 0.344678549009226
624	 0.345356124839906
625	 0.345896050428333
626	 0.346238813599528
627	 0.3468323379887
628	 0.347474541892758
629	 0.348098896667205
630	 0.348705559429973
631	 0.349271738525936
632	 0.349892956797895
633	 0.350581280389615
634	 0.351223362641436
635	 0.351905960094306
636	 0.352564681792924
637	 0.353148468772063
638	 0.353757200173726
639	 0.354500626575525
640	 0.355306824934527
641	 0.356003786690729
642	 0.356678798097797
643	 0.357432025780409
644	 0.358238092580726
645	 0.358870733566642
646	 0.359483398235109
647	 0.360141171271624
648	 0.360842663080522
649	 0.361423219632303
650	 0.362075263461286
651	 0.362784910656231
652	 0.363392332506169
653	 0.364005410409906
654	 0.36468011703936
655	 0.365407395016875
656	 0.366073611569482
657	 0.366681250496058
658	 0.367360663790248
659	 0.368200660590001
660	 0.368883656530168
661	 0.369584553705788
662	 0.370358379224943
663	 0.371138392600745
664	 0.371891865670111
665	 0.372704149708495
666	 0.373583462391978
667	 0.374317323885094
668	 0.375186507750088
669	 0.376035875286542
670	 0.376661372856797
671	 0.377497547209516
672	 0.378378742494129
673	 0.379182520989007
674	 0.379872557419145
675	 0.380586989393923
676	 0.381336051411353
677	 0.382096506278715
678	 0.382830769755327
679	 0.383532967849336
680	 0.384236189108588
681	 0.384981109241329
682	 0.385738249068434
683	 0.386543915727284
684	 0.387341188751992
685	 0.387991036774919
686	 0.388790901333485
687	 0.389626510108645
688	 0.390387304943896
689	 0.391176239186491
690	 0.392001664187765
691	 0.392887518982501
692	 0.393830603456204
693	 0.394664156041699
694	 0.395448829634269
695	 0.396214620076342
696	 0.396945677234611
697	 0.397775934875519
698	 0.398599873048635
699	 0.399336197725339
700	 0.400093837412069
701	 0.400807666624096
702	 0.40151800790405
703	 0.402270519812993
704	 0.40287052610087
705	 0.403456878820798
706	 0.404095699795539
707	 0.404750692054393
708	 0.405397592438055
709	 0.406018269755619
710	 0.406615062342593
711	 0.40723147675171
712	 0.407834219359567
713	 0.408404811419234
714	 0.408943673683406
715	 0.409521747759411
716	 0.410092840582651
717	 0.41063874985539
718	 0.411177406170987
719	 0.411712580620493
720	 0.412224368713052
721	 0.412719145032908
722	 0.413280069175456
723	 0.413766863731013
724	 0.414182804573863
725	 0.414597751382153
726	 0.415112448164876
727	 0.415617067696013
728	 0.416075136780636
729	 0.416521777750855
730	 0.41689553865102
731	 0.417269962780741
732	 0.417674017924341
733	 0.418003047532085
734	 0.418414518770318
735	 0.418824752291773
736	 0.419136778462583
737	 0.419559967384319
738	 0.419943131424928
739	 0.420260578782624
740	 0.420582297721253
741	 0.420860415451463
742	 0.421205582354981
743	 0.421625073074999
744	 0.421937440265774
745	 0.422212573774004
746	 0.422472501063513
747	 0.422737014342467
748	 0.423059328526569
749	 0.423329285828454
750	 0.423547482280806
751	 0.423779986353938
752	 0.424047860368756
753	 0.424289540290585
754	 0.424504403230804
755	 0.424772209549965
756	 0.425007292051817
757	 0.425211916193398
758	 0.425394895190114
759	 0.425521039161013
760	 0.425689322159801
761	 0.425894859719984
762	 0.426083935842442
763	 0.426202468061398
764	 0.42635100722011
765	 0.426506044776585
766	 0.426548293570594
767	 0.426684478233876
768	 0.42682481252772
769	 0.426926103709979
770	 0.427111387879906
771	 0.427288696602554
772	 0.427386189691891
773	 0.427389409637926
774	 0.427442247904944
775	 0.427580118210041
776	 0.427739327119565
777	 0.427820295766131
778	 0.427921843930591
779	 0.428044878532814
780	 0.428159458895222
781	 0.428214724661196
782	 0.428247903066739
783	 0.428265933315574
784	 0.428293140105948
785	 0.428415380197872
786	 0.42844939613586
787	 0.428440023964878
788	 0.428488968720201
789	 0.428560307343285
790	 0.428643452692475
791	 0.428698132066032
792	 0.428680596123638
793	 0.428682375611223
794	 0.428673161573355
795	 0.428638389991397
796	 0.428602974867718
797	 0.428671389627688
798	 0.428733149774782
799	 0.428695829974518
800	 0.428615244200923
801	 0.428626843238438
802	 0.428703242271216
803	 0.428748232325248
804	 0.428677354318131
805	 0.428643599533708
806	 0.428641678931277
807	 0.428573791173892
808	 0.428576333258537
809	 0.428573369253718
810	 0.428529298306175
811	 0.428485804489908
812	 0.428482330172371
813	 0.428455830209499
814	 0.428389114505725
815	 0.428410409717853
816	 0.428416288427388
817	 0.428398950078969
818	 0.428375263108015
819	 0.428325763831963
820	 0.42833527022037
821	 0.428331464884773
822	 0.428195876644931
823	 0.428109024600093
824	 0.428124816689116
825	 0.428175851984122
826	 0.428103505362005
827	 0.427974504540209
828	 0.427887960489895
829	 0.427881979444776
830	 0.427889284412466
831	 0.427897761101203
832	 0.427868417883958
833	 0.427788694863409
834	 0.427710453910425
835	 0.427765538591188
836	 0.427813054509169
837	 0.427681555819765
838	 0.427560709135892
839	 0.427491618214063
840	 0.427448262252405
841	 0.42738037120655
842	 0.42738715710932
843	 0.427434650474543
844	 0.427431890165982
845	 0.427277279721288
846	 0.427281405447291
847	 0.427329434622708
848	 0.427347760134609
849	 0.427434208212348
850	 0.427302916933461
851	 0.42715925243655
852	 0.427177253184309
853	 0.427160540366394
854	 0.427179824850639
855	 0.427162975469373
856	 0.427045045590858
857	 0.42692867927
858	 0.426960654269525
859	 0.427057072046714
860	 0.427062171154009
861	 0.427154845133855
862	 0.427123882591836
863	 0.426994520721086
864	 0.42697433984238
865	 0.427094985971953
866	 0.427146366589058
867	 0.427091281376011
868	 0.42709711521209
869	 0.427044298869815
870	 0.427019046826897
871	 0.42706167208558
872	 0.427094986112399
873	 0.427025006632119
874	 0.427051906056676
875	 0.427239250303378
876	 0.427220641640871
877	 0.42719656446644
878	 0.42721050269104
879	 0.427243513162248
880	 0.427213244288869
881	 0.427318143889135
882	 0.427444037441708
883	 0.427432895927026
884	 0.427486884706637
885	 0.427505608847762
886	 0.427526595674856
887	 0.427630117888378
888	 0.427714839246949
889	 0.427719401233041
890	 0.427740755959251
891	 0.427930464546563
892	 0.428047386339003
893	 0.428112569866976
894	 0.428169899953285
895	 0.428259569786083
896	 0.428383776625712
897	 0.42858501012881
898	 0.428755571619785
899	 0.428671496285702
900	 0.428821622465097
901	 0.429049818523973
902	 0.429175783311551
903	 0.429160404056867
904	 0.429255445729292
905	 0.429434490030211
906	 0.429604384075802
907	 0.429674300678944
908	 0.42979977610382
909	 0.429936505349101
910	 0.4300685432308
911	 0.430330869239778
912	 0.430607907983584
913	 0.430753683505881
914	 0.430760279178431
915	 0.430944556891346
916	 0.431154029945435
917	 0.431435208127593
918	 0.431753569913533
919	 0.431684421494053
920	 0.431801691178487
921	 0.432030880411294
922	 0.432178605309523
923	 0.432430136685478
924	 0.432671707885375
925	 0.432781485176936
926	 0.432773591023693
927	 0.433136607863314
928	 0.433239428591715
929	 0.433283649427743
930	 0.433617301533587
931	 0.433746250414215
932	 0.433898957041134
933	 0.434131406181493
934	 0.434388930759457
935	 0.434533561726318
936	 0.434589739110847
937	 0.434737289025159
938	 0.435088864747929
939	 0.435209272534855
940	 0.435368359162924
941	 0.435664388087806
942	 0.436032742154808
943	 0.436177149836793
944	 0.436233436996265
945	 0.436372547770043
946	 0.43669289887294
947	 0.436988847331155
948	 0.437179637742486
949	 0.43730592356065
950	 0.437484894239156
951	 0.437879411008891
952	 0.438104752949029
953	 0.438204642154771
954	 0.438372622479577
955	 0.438479451684847
956	 0.438744864341743
957	 0.439005558966779
958	 0.439086214089614
959	 0.439434519343546
960	 0.43965709122002
961	 0.439827443140038
962	 0.440160801096993
963	 0.440675596559698
964	 0.440867620553018
965	 0.440948926619968
966	 0.441222843619825
967	 0.441318356261232
968	 0.441907548506212
969	 0.442392507059625
970	 0.442314187045084
971	 0.442741331890455
972	 0.443002114358593
973	 0.443154404664707
974	 0.443448070406619
975	 0.444054549110101
976	 0.444403244007296
977	 0.444496076791828
978	 0.444614756985268
979	 0.445182492207724
980	 0.445507846596863
981	 0.445511406972167
982	 0.445545954903195
983	 0.446275466221784
984	 0.446825298756814
985	 0.447126281762875
986	 0.447373725873228
987	 0.447826956299025
988	 0.44810408098031
989	 0.448077734122354
990	 0.448054244916075
991	 0.448571886590716
992	 0.448963771405385
993	 0.449150926349995
994	 0.449336956556353
995	 0.449816691069088
996	 0.450428431573302
997	 0.450655453894269
998	 0.450817938928379
999	 0.451470294614172
1000	 0.451861696249739
1001	 0.44791713407785
1002	 0.447985156487071
1003	 0.448101922118917
1004	 0.448217410336077
1005	 0.448513590542764
1006	 0.448888040325083
1007	 0.449250662285511
1008	 0.44953920758088
1009	 0.449785678943349
1010	 0.449989116601061
1011	 0.450243889477622
1012	 0.450272257788458
1013	 0.450390669441847
1014	 0.450725285926134
1015	 0.450874047822188
1016	 0.451144881276277
1017	 0.451426070423466
1018	 0.451501816179594
1019	 0.451635106511544
1020	 0.451744096041819
1021	 0.451879966540915
1022	 0.452127496348086
1023	 0.452419860144327
1024	 0.452655197541707
1025	 0.452956241656276
1026	 0.453135435402981
1027	 0.453195852341058
1028	 0.453290146097809
1029	 0.453362392497838
1030	 0.453549672027559
1031	 0.453898788166781
1032	 0.454054575905452
1033	 0.45420262625735
1034	 0.454428598657915
1035	 0.454486580048365
1036	 0.454500959889395
1037	 0.454680224478266
1038	 0.454864977436103
1039	 0.455051058536979
1040	 0.455207529980392
1041	 0.455499756483457
1042	 0.455645280796763
1043	 0.455681650477953
1044	 0.455823844346775
1045	 0.456026822885574
1046	 0.456307759803374
1047	 0.456495869148476
1048	 0.456638104173467
1049	 0.456821163710608
1050	 0.456950396949013
1051	 0.45713301885953
1052	 0.457384797001288
1053	 0.457581984321785
1054	 0.457720957866431
1055	 0.457846780471511
1056	 0.45812667890308
1057	 0.458337077493603
1058	 0.458478317367204
1059	 0.458715467917364
1060	 0.458774260707942
1061	 0.458859337740959
1062	 0.459098937809603
1063	 0.459254227855883
1064	 0.459438927916803
1065	 0.459674960340084
1066	 0.459891151360519
1067	 0.460095787131358
1068	 0.460237071140283
1069	 0.460267303635172
1070	 0.460405554976429
1071	 0.460558677835486
1072	 0.460695505149823
1073	 0.460876461478709
1074	 0.461194723167188
1075	 0.46132785607187
1076	 0.461450172265008
1077	 0.461717743975521
1078	 0.461843583789703
1079	 0.461937463886916
1080	 0.462069044695817
1081	 0.462106362466115
1082	 0.462185640738861
1083	 0.462346036836236
1084	 0.462647564769975
1085	 0.462850084492756
1086	 0.463047231914717
1087	 0.463211658530391
1088	 0.463347435888317
1089	 0.463439643587377
1090	 0.46354821281315
1091	 0.463735540409309
1092	 0.463868601310371
1093	 0.463976509854676
1094	 0.464067121304551
1095	 0.464153430316286
1096	 0.464332611313302
1097	 0.464533457184448
1098	 0.464698926075543
1099	 0.46491209398388
1100	 0.465059314595405
1101	 0.465120989665186
1102	 0.465224066989368
1103	 0.465321614489856
1104	 0.46543518626116
1105	 0.465561984854178
1106	 0.465724504415921
1107	 0.465948532160345
1108	 0.466121659144205
1109	 0.466265422427241
1110	 0.466477578232446
1111	 0.466673352762816
1112	 0.466802949684736
1113	 0.467004214916087
1114	 0.46734963595734
1115	 0.467499904293158
1116	 0.467620372563211
1117	 0.467664634487975
1118	 0.467420399120681
1119	 0.467401750746236
1120	 0.46743689603555
1121	 0.467555404729505
1122	 0.467690682510801
1123	 0.467965635180821
1124	 0.468112250760785
1125	 0.46818478738326
1126	 0.468360741902802
1127	 0.468512701207371
1128	 0.468582843412982
1129	 0.468659517727373
1130	 0.468735596271439
1131	 0.468745366631115
1132	 0.468831582742014
1133	 0.468990892433956
1134	 0.469072312354831
1135	 0.469118049422595
1136	 0.469175179429915
1137	 0.469244962001486
1138	 0.469290218044033
1139	 0.469317861859995
1140	 0.469366895876412
1141	 0.469379455369146
1142	 0.469343535119244
1143	 0.469386980900016
1144	 0.469423588655337
1145	 0.469423978979841
1146	 0.469409150320101
1147	 0.469405076970518
1148	 0.469362016277409
1149	 0.469354253897705
1150	 0.469383526804608
1151	 0.469390760191914
1152	 0.469390651464154
1153	 0.469401293250941
1154	 0.469417114051798
1155	 0.469426811959932
1156	 0.46942481283937
1157	 0.469438816001711
1158	 0.469492797609463
1159	 0.469545136102483
1160	 0.469599722376203
1161	 0.469699031940095
1162	 0.469828313075278
1163	 0.469998288490635
1164	 0.470098841913238
1165	 0.470204323266706
1166	 0.470319090269886
1167	 0.47037807832772
1168	 0.470480440858074
1169	 0.47062855461427
1170	 0.470780056590767
1171	 0.47095535396118
1172	 0.471083057762696
1173	 0.471220456717268
1174	 0.471337811369205
1175	 0.471424905677114
1176	 0.471444196700829
1177	 0.4715572864498
1178	 0.471716044603655
1179	 0.471793774734421
1180	 0.471884526487331
1181	 0.471956085224889
1182	 0.471963165001796
1183	 0.472035923120709
1184	 0.472128333194975
1185	 0.472249685966734
1186	 0.472424178189075
1187	 0.472547313819184
1188	 0.472686358263156
1189	 0.47279805259504
1190	 0.472855124396301
1191	 0.472934517964947
1192	 0.473018938110538
1193	 0.473105726357053
1194	 0.473183638495526
1195	 0.473287662251114
1196	 0.473384062387596
1197	 0.473467165889253
1198	 0.473568450296393
1199	 0.473669441099978
1200	 0.473777630831381
1201	 0.473908950531159
1202	 0.474017232749948
1203	 0.474111766248107
1204	 0.474223838226452
1205	 0.474335225059836
1206	 0.474444353111469
1207	 0.474591914949837
1208	 0.474678752498257
1209	 0.474715659017427
1210	 0.474778322618461
1211	 0.474792757726968
1212	 0.474858081810657
1213	 0.4749688145288
1214	 0.475093718291223
1215	 0.475168103490777
1216	 0.475235999423724
1217	 0.475294498506687
1218	 0.47529002366495
1219	 0.475374241964732
1220	 0.475517080201699
1221	 0.475606235973531
1222	 0.475718108952089
1223	 0.47579444275908
1224	 0.475804791512049
1225	 0.475876900761939
1226	 0.475999794922583
1227	 0.476062838416603
1228	 0.476109509129914
1229	 0.476166547441772
1230	 0.476189091302807
1231	 0.476222939319312
1232	 0.476271437380121
1233	 0.476330270635759
1234	 0.476404769302533
1235	 0.476444683836345
1236	 0.476498513355942
1237	 0.476563315918893
1238	 0.476638515672224
1239	 0.476711160410291
1240	 0.476778195405564
1241	 0.47686834980043
1242	 0.476936434114583
1243	 0.476973975086777
1244	 0.477031428329867
1245	 0.477105358951878
1246	 0.477163452963587
1247	 0.477219704374845
1248	 0.477263992493909
1249	 0.47725106638086
1250	 0.477320807125825
1251	 0.477451440849172
1252	 0.477544647427764
1253	 0.477694833584159
1254	 0.477800739443917
1255	 0.477876888918981
1256	 0.477886720312381
1257	 0.477955294287999
1258	 0.478042789368237
1259	 0.478096970654876
1260	 0.478150360825939
1261	 0.478195348290675
1262	 0.478204260336095
1263	 0.478249135496343
1264	 0.478339948634617
1265	 0.478363991545959
1266	 0.478344750606504
1267	 0.478367077407343
1268	 0.478351500974954
1269	 0.478386010180182
1270	 0.478490292460375
1271	 0.478564196732425
1272	 0.478663979217984
1273	 0.478716230994468
1274	 0.478736146818415
1275	 0.478759422664971
1276	 0.478713047869444
1277	 0.478728022153933
1278	 0.478771384940509
1279	 0.478864344382211
1280	 0.478892864962615
1281	 0.478937058970847
1282	 0.478951277663517
1283	 0.47889384518125
1284	 0.478908714404622
1285	 0.478967247824587
1286	 0.478991943393352
1287	 0.479026687906716
1288	 0.479047906159898
1289	 0.479046513805184
1290	 0.479054506936507
1291	 0.479074686197464
1292	 0.479074063631553
1293	 0.479036772875627
1294	 0.479043641598281
1295	 0.479069375388938
1296	 0.479086504455202
1297	 0.479151850250216
1298	 0.479174142402094
1299	 0.479144578726081
1300	 0.479137716444871
1301	 0.479134570911351
1302	 0.479134691679441
1303	 0.479103534780903
1304	 0.479066461523991
1305	 0.479034249612126
1306	 0.478957975777893
1307	 0.478938782906306
1308	 0.478976497853265
1309	 0.47896372495744
1310	 0.478941457932797
1311	 0.478930303074274
1312	 0.478921856548941
1313	 0.478879839620397
1314	 0.478824119785428
1315	 0.478777101258354
1316	 0.478707604190998
1317	 0.478636585426285
1318	 0.478608788302337
1319	 0.478528933182018
1320	 0.478359067714528
1321	 0.478260511396592
1322	 0.478209326504735
1323	 0.478109319512821
1324	 0.477981514058463
1325	 0.477935405010765
1326	 0.477828025753485
1327	 0.477672790750079
1328	 0.477544941926764
1329	 0.477442016130289
1330	 0.477302962226808
1331	 0.47714006506987
1332	 0.47699169861325
1333	 0.476843549856246
1334	 0.476682085826495
1335	 0.4765156540951
1336	 0.476345499189735
1337	 0.476140440667825
1338	 0.475996683459001
1339	 0.475900255743226
1340	 0.475764431618577
1341	 0.475658535611178
1342	 0.475508097356178
1343	 0.47531832777579
1344	 0.475119199555585
1345	 0.474908459849737
1346	 0.474688005496949
1347	 0.474436806576074
1348	 0.474187504897515
1349	 0.473929888073529
1350	 0.473672824556446
1351	 0.473414730960032
1352	 0.473177429596488
1353	 0.472916672775961
1354	 0.472674509523629
1355	 0.472410947168614
1356	 0.472125198874112
1357	 0.471864368276839
1358	 0.471607956286469
1359	 0.471343490050572
1360	 0.471078042781054
1361	 0.470830879218714
1362	 0.470599702179587
1363	 0.470349339507319
1364	 0.470096737251177
1365	 0.469856541674363
1366	 0.469619951621985
1367	 0.469362113058484
1368	 0.469150945109476
1369	 0.468862574860733
1370	 0.468537962353525
1371	 0.468161474885597
1372	 0.467770944075002
1373	 0.4672825540605
1374	 0.46675927428733
1375	 0.466125024671377
1376	 0.465401195654063
1377	 0.464577280191747
1378	 0.463698587733174
1379	 0.462692713212988
1380	 0.461596133975425
1381	 0.46043145912079
1382	 0.459099966356601
1383	 0.457677529192233
1384	 0.456225899501323
1385	 0.454632662297584
1386	 0.453175123220903
1387	 0.451688934737069
1388	 0.450348119103664
1389	 0.44907510094005
1390	 0.447899611497971
1391	 0.44681184839862
1392	 0.445790553213201
1393	 0.444905681916171
1394	 0.443941622985696
1395	 0.443064922347851
1396	 0.442048508126073
1397	 0.440997471867654
1398	 0.439826189106663
1399	 0.438561954940974
1400	 0.437231063641882
1401	 0.435789783744346
1402	 0.434308439806152
1403	 0.432710496955679
1404	 0.431155427378532
1405	 0.429524376908427
1406	 0.427969994787425
1407	 0.426423196676779
1408	 0.424962450713188
1409	 0.4235467164287
1410	 0.422250444121445
1411	 0.421068606851867
1412	 0.419996799436208
1413	 0.419155928201628
1414	 0.41848194221308
1415	 0.418019291562519
1416	 0.41777293729618
1417	 0.417601654045893
1418	 0.417581383838609
1419	 0.417650035958921
1420	 0.417869338988392
1421	 0.41808086686943
1422	 0.418411987786766
1423	 0.418699100499906
1424	 0.418993681236924
1425	 0.419294350255045
1426	 0.419611597825672
1427	 0.419931828172142
1428	 0.420250718349084
1429	 0.420593746617843
1430	 0.420936430394471
1431	 0.421320952101887
1432	 0.421751039465056
1433	 0.422162106456213
1434	 0.422606693504765
1435	 0.42303039609157
1436	 0.423428695312218
1437	 0.423836472677728
1438	 0.424268443538801
1439	 0.424659155588763
1440	 0.425032146324232
1441	 0.425398581504159
1442	 0.425730191378221
1443	 0.426070190184793
1444	 0.426418930675533
1445	 0.426755570269279
1446	 0.427040156006692
1447	 0.427336540406782
1448	 0.427633520598641
1449	 0.427857037231737
1450	 0.428077160334195
1451	 0.428295860488871
1452	 0.42849279735366
1453	 0.428672439309275
1454	 0.428813648266565
1455	 0.428962030863727
1456	 0.429102706911523
1457	 0.429209325922332
1458	 0.429332954273981
1459	 0.429472609211585
1460	 0.429598506548819
1461	 0.42969738809874
1462	 0.429823177388328
1463	 0.429961062003085
1464	 0.430116819203179
1465	 0.430267295400266
1466	 0.430471178249093
1467	 0.430710684037334
1468	 0.430962031535433
1469	 0.431246386373204
1470	 0.43154810460234
1471	 0.431861900260386
1472	 0.432200764249949
1473	 0.432580312376708
1474	 0.432950258943798
1475	 0.433336138001693
1476	 0.433720463365863
1477	 0.43413267313552
1478	 0.434499270084941
1479	 0.434819921122064
1480	 0.435183827906524
1481	 0.435531389891886
1482	 0.435896676326226
1483	 0.436315579080261
1484	 0.436709544276701
1485	 0.437100571772094
1486	 0.437474578115821
1487	 0.437828669290214
1488	 0.438196125105612
1489	 0.438563052428956
1490	 0.438914050502248
1491	 0.439264490824969
1492	 0.43961469953133
1493	 0.439956081763009
1494	 0.440294932755025
1495	 0.440657496730174
1496	 0.441023766198466
1497	 0.441358946579466
1498	 0.441663411592354
1499	 0.441933158652914
1500	 0.442194620025018
1501	 0.442481463848578
1502	 0.442809015645682
1503	 0.443117265077665
1504	 0.443416061957226
1505	 0.44373430542113
1506	 0.444005842905466
1507	 0.444283146125176
1508	 0.444570962627953
1509	 0.444859012798838
1510	 0.445130416560036
1511	 0.445398000558003
1512	 0.445679612670386
1513	 0.445952368108395
1514	 0.446200265606377
1515	 0.446448500967071
1516	 0.446714206525119
1517	 0.446964287702623
1518	 0.447198361615456
1519	 0.447420220053633
1520	 0.447632239985225
1521	 0.447849113542428
1522	 0.448041800357043
1523	 0.448249972363667
1524	 0.448483721728319
1525	 0.448695535031812
1526	 0.448896907643758
1527	 0.449097617755868
1528	 0.4492983072636
1529	 0.449484984932625
1530	 0.449668323066522
1531	 0.449831340374428
1532	 0.449953980258582
1533	 0.450120339245953
1534	 0.450296304856438
1535	 0.45046697524665
1536	 0.450666915545493
1537	 0.450853868863333
1538	 0.451026551767895
1539	 0.451196661269275
1540	 0.45137483755938
1541	 0.451542263897365
1542	 0.451676798366096
1543	 0.451847501530752
1544	 0.452042062179061
1545	 0.452219509217417
1546	 0.452424723991434
1547	 0.452589066974014
1548	 0.452708218128882
1549	 0.4528582571507
1550	 0.453014434286673
1551	 0.453151941873273
1552	 0.453296232884699
1553	 0.453430354598276
1554	 0.45353697863275
1555	 0.453652141117977
1556	 0.453766726953529
1557	 0.45389216501888
1558	 0.454011513421666
1559	 0.454143101907158
1560	 0.454323152502079
1561	 0.454454329145094
1562	 0.454553818352845
1563	 0.454663365266724
1564	 0.454776299008088
1565	 0.454845692344797
1566	 0.454866600025505
1567	 0.454935609985384
1568	 0.454967637779621
1569	 0.455042120354768
1570	 0.455207858050748
1571	 0.455341769813802
1572	 0.455477372788721
1573	 0.455597736713874
1574	 0.455728782847781
1575	 0.455803103380784
1576	 0.455864013347016
1577	 0.455919497792171
1578	 0.455975606604295
1579	 0.456061125810082
1580	 0.456156373996444
1581	 0.456276056276507
1582	 0.45636950889767
1583	 0.456407992840155
1584	 0.456449767947676
1585	 0.456491093814528
1586	 0.45655961678113
1587	 0.456648562231599
1588	 0.456718660340822
1589	 0.456798871563408
1590	 0.456832685984658
1591	 0.456851095510701
1592	 0.456919864572243
1593	 0.456952199547165
1594	 0.457010918278574
1595	 0.457090563431792
1596	 0.457094674541637
1597	 0.457115405467938
1598	 0.457158823389632
1599	 0.457196001997734
1600	 0.457256284333565
1601	 0.457320013222703
1602	 0.457364634023607
1603	 0.457411106861182
1604	 0.457474596738136
1605	 0.457540793716803
1606	 0.457576114509664
1607	 0.4575849313467
1608	 0.457599487344053
1609	 0.457594762432598
1610	 0.457578833139435
1611	 0.457588714056117
1612	 0.457642509046842
1613	 0.457674829397755
1614	 0.457730030145915
1615	 0.457822798887369
1616	 0.45783285647704
1617	 0.457876537697986
1618	 0.457910684624071
1619	 0.457939185572389
1620	 0.457984197257965
1621	 0.458040093579821
1622	 0.458085488658985
1623	 0.458134668683597
1624	 0.458190394952636
1625	 0.458249127772333
1626	 0.458282956321902
1627	 0.458323957480511
1628	 0.458312716378527
1629	 0.458293478248277
1630	 0.458312536229844
1631	 0.458313946913541
1632	 0.458341889057692
1633	 0.458394348863304
1634	 0.458420063315421
1635	 0.45845925284686
1636	 0.458462213280824
1637	 0.458464068467737
1638	 0.45848465006364
1639	 0.458502466890635
1640	 0.458563841284134
1641	 0.458626391327591
1642	 0.458734998265343
1643	 0.458788534772904
1644	 0.458800279536606
1645	 0.458825572274975
1646	 0.45882220104788
1647	 0.458815049474026
1648	 0.458802362276145
1649	 0.458816607575497
1650	 0.458837741300545
1651	 0.45885253599126
1652	 0.45889309116169
1653	 0.458930768834706
1654	 0.458972701668374
1655	 0.458983370450174
1656	 0.45898233850237
1657	 0.45897893270514
1658	 0.4589127590546
1659	 0.458898966766249
1660	 0.458947568892421
1661	 0.458957666089976
1662	 0.458973915104582
1663	 0.458980413017693
1664	 0.458922409156833
1665	 0.458925897166648
1666	 0.459001551916718
1667	 0.459020568288258
1668	 0.45902112455018
1669	 0.459048196911873
1670	 0.459067419657758
1671	 0.459067261165972
1672	 0.459108113507658
1673	 0.459103303360509
1674	 0.459007600253629
1675	 0.458973253484583
1676	 0.458965433107833
1677	 0.458949099380387
1678	 0.458955364261485
1679	 0.458958013328501
1680	 0.458975278069223
1681	 0.458949186072956
1682	 0.458881721565079
1683	 0.458856605206346
1684	 0.458819768812311
1685	 0.45879281277354
1686	 0.458826063562518
1687	 0.45880577108801
1688	 0.458745477038258
1689	 0.458690427583414
1690	 0.458606004705894
1691	 0.458560598678336
1692	 0.458519315128159
1693	 0.458492857220084
1694	 0.458510389152289
1695	 0.458497800949992
1696	 0.458493820148484
1697	 0.458459910118604
1698	 0.458371746084746
1699	 0.45835182744212
1700	 0.458349655293225
1701	 0.458339023542105
1702	 0.458386710228982
1703	 0.458364191688211
1704	 0.458292034395578
1705	 0.45823646152994
1706	 0.458158388464393
1707	 0.458104194167826
1708	 0.458043475542563
1709	 0.458021440235838
1710	 0.458048707902167
1711	 0.458016418104153
1712	 0.457985108347719
1713	 0.457926049642138
1714	 0.457822454966831
1715	 0.457727045739318
1716	 0.457632246406326
1717	 0.457532495484547
1718	 0.457408756542916
1719	 0.457275006041983
1720	 0.457201671661039
1721	 0.457114698856588
1722	 0.456995372654934
1723	 0.456915019834787
1724	 0.456797465163875
1725	 0.456681819383687
1726	 0.45662027957861
1727	 0.456554565255799
1728	 0.456466818759511
1729	 0.456326316493068
1730	 0.456162142582237
1731	 0.456031360237384
1732	 0.455897681113993
1733	 0.455732712351707
1734	 0.455591820077186
1735	 0.455449655129134
1736	 0.45533004237249
1737	 0.455313863434779
1738	 0.455215564165443
1739	 0.455033674755012
1740	 0.454891450835305
1741	 0.454747000155023
1742	 0.454608358735161
1743	 0.45451365407561
1744	 0.454389355633177
1745	 0.454211556558858
1746	 0.454079126375563
1747	 0.453988151085181
1748	 0.453845876140547
1749	 0.453690874501038
1750	 0.453558580949451
1751	 0.453407581216015
1752	 0.45325879958056
1753	 0.453130119351849
1754	 0.452988405451961
1755	 0.45281872611291
1756	 0.452671706057942
1757	 0.452558200110137
1758	 0.452417473721116
1759	 0.452237424762249
1760	 0.452148954236605
1761	 0.452045875462071
1762	 0.451914094916981
1763	 0.451795241784285
1764	 0.45158739262131
1765	 0.451384158106015
1766	 0.451221037427173
1767	 0.451107494762716
1768	 0.450983487884113
1769	 0.450800703403483
1770	 0.450669308905409
1771	 0.450540826633741
1772	 0.450445190782334
1773	 0.450414561174559
1774	 0.450312108365065
1775	 0.450151790077794
1776	 0.449970043905293
1777	 0.449775587655128
1778	 0.449638850551624
1779	 0.449522056610724
1780	 0.449495395619596
1781	 0.449425218172393
1782	 0.449370435503614
1783	 0.449291569779813
1784	 0.449168939130773
1785	 0.44904057031196
1786	 0.448855873030312
1787	 0.448760463883206
1788	 0.448710848868608
1789	 0.448646659782319
1790	 0.448671645848386
1791	 0.44861784699037
1792	 0.448462438387464
1793	 0.448389543448267
1794	 0.448407155019398
1795	 0.448473793344373
1796	 0.448517018342785
1797	 0.448538226320701
1798	 0.448465275740374
1799	 0.448381325482612
1800	 0.448358708710581
1801	 0.448300145742856
1802	 0.448269710807843
1803	 0.448238905713633
1804	 0.44818620646682
1805	 0.448251890353832
1806	 0.448296735311076
1807	 0.448192177800233
1808	 0.448148715351842
1809	 0.448126214601568
1810	 0.44803704038087
1811	 0.448040644579021
1812	 0.448049683256536
1813	 0.447940912196192
1814	 0.447915844174354
1815	 0.447979725084981
1816	 0.447984074237445
1817	 0.447997897813082
1818	 0.447919113161084
1819	 0.447779720467903
1820	 0.447619305935628
1821	 0.447531239113315
1822	 0.447475115592229
1823	 0.447453118739825
1824	 0.447493368927058
1825	 0.447472918232015
1826	 0.447395032207335
1827	 0.447307738357988
1828	 0.447246389448644
1829	 0.447170994989734
1830	 0.446999615858612
1831	 0.446407373391162
1832	 0.446517233750894
1833	 0.446547095069264
1834	 0.44657129304882
1835	 0.446600342541504
1836	 0.446585427305282
1837	 0.446494230238066
1838	 0.446469943079507
1839	 0.44651444834554
1840	 0.446414911729297
1841	 0.446282807691517
1842	 0.446275042974027
1843	 0.446215105747812
1844	 0.446103448119574
1845	 0.445999377500804
1846	 0.445937373018735
1847	 0.445794770015725
1848	 0.445553993651784
1849	 0.445416213168765
1850	 0.445248196394677
1851	 0.445027235356966
1852	 0.444774634664447
1853	 0.444521601969789
1854	 0.444223514353817
1855	 0.443874199591238
1856	 0.443522894499596
1857	 0.443183398134262
1858	 0.442736609847688
1859	 0.44222703652755
1860	 0.441768843223207
1861	 0.441154546521564
1862	 0.440439419307583
1863	 0.439589058550304
1864	 0.438668592735033
1865	 0.43770360939625
1866	 0.436655338584263
1867	 0.435500213252239
1868	 0.43432768353964
1869	 0.43296097092405
1870	 0.431386390930518
1871	 0.429812575823519
1872	 0.428135725524745
1873	 0.426373810329986
1874	 0.424653105254432
1875	 0.422772490658075
1876	 0.420794819035903
1877	 0.418772768971539
1878	 0.416544848128848
1879	 0.414155874367395
1880	 0.41163026172902
1881	 0.408953573972361
1882	 0.406051986081999
1883	 0.402910417773738
1884	 0.399632907759686
1885	 0.396158952313824
1886	 0.392510030748192
1887	 0.388654368346711
1888	 0.38466226481309
1889	 0.380601860196773
1890	 0.37643349957552
1891	 0.372056365992823
1892	 0.36761241402796
1893	 0.363075316023361
1894	 0.358429597588428
1895	 0.353830757960505
1896	 0.349301080999651
1897	 0.344855964251031
1898	 0.34046630791433
1899	 0.336199487183971
1900	 0.332197567711979
1901	 0.328348685613508
1902	 0.324856593043027
1903	 0.321703025955908
1904	 0.318818462328209
1905	 0.316273158407468
1906	 0.313871422610477
1907	 0.311818656659166
1908	 0.310178969469471
1909	 0.308785648506639
1910	 0.307648262210699
1911	 0.306690661506179
1912	 0.305932041648583
1913	 0.305351817763993
1914	 0.30496164466662
1915	 0.304746812854303
1916	 0.304705322075083
1917	 0.304796888501379
1918	 0.305056897483357
1919	 0.305419002860831
1920	 0.305921618503647
1921	 0.306463933321024
1922	 0.306933382737593
1923	 0.307434363122952
1924	 0.307955329831874
1925	 0.308547644117446
1926	 0.309212758427302
1927	 0.309889838670916
1928	 0.310649344407762
1929	 0.311398650151003
1930	 0.312031618953517
1931	 0.312662308436974
1932	 0.313345360579497
1933	 0.314028559397106
1934	 0.314706567999611
1935	 0.315381654409997
1936	 0.316089286472108
1937	 0.316745466380191
1938	 0.317389284987734
1939	 0.318102812756705
1940	 0.318765954120973
1941	 0.319500321501791
1942	 0.320304285727658
1943	 0.32100881949634
1944	 0.32179625433383
1945	 0.32253079348151
1946	 0.32320764703104
1947	 0.323883782861752
1948	 0.324554346318382
1949	 0.325214883453084
1950	 0.325888103994725
1951	 0.326649910759704
1952	 0.327384622227198
1953	 0.328083447346456
1954	 0.328716654854051
1955	 0.329246033815889
1956	 0.329957219466412
1957	 0.330766014080376
1958	 0.331525471641633
1959	 0.332394193169076
1960	 0.333200767131602
1961	 0.33392526437498
1962	 0.334660077465388
1963	 0.33554544076755
1964	 0.336433582565795
1965	 0.337370779032918
1966	 0.338199004067754
1967	 0.33901683852241
1968	 0.339925979118178
1969	 0.340829284388455
1970	 0.341826343704878
1971	 0.34275868801304
1972	 0.34370651822268
1973	 0.344533108158236
1974	 0.345272774629528
1975	 0.346018701553794
1976	 0.346700731110602
1977	 0.347393623182758
1978	 0.348355985706192
1979	 0.349282993804032
1980	 0.350174483363553
1981	 0.351153548232202
1982	 0.352059862114125
1983	 0.352832818523075
1984	 0.353736419850552
1985	 0.354725724649725
1986	 0.355674669640321
1987	 0.356666134121678
1988	 0.357583311118717
1989	 0.358507110247822
1990	 0.359433749105833
1991	 0.360359560328767
1992	 0.361347291326105
1993	 0.362267689171361
1994	 0.363154713043356
1995	 0.364044279068874
1996	 0.364866231214794
1997	 0.365742171227993
1998	 0.36668437492464
1999	 0.367565585317364
2000	 0.368398338809476
2001	 0.369301705486615
2002	 0.370208908353951
2003	 0.371019286190897
2004	 0.371913448506131
2005	 0.372798524932804
2006	 0.373633925712101
2007	 0.374517605587702
2008	 0.375358504827411
2009	 0.376170982741475
2010	 0.37700563315726
2011	 0.377799295006024
2012	 0.378647874995073
2013	 0.379595437796227
2014	 0.380418971596155
2015	 0.381221599679095
2016	 0.381994417070741
2017	 0.382642817955907
2018	 0.383378202678668
2019	 0.384075842184774
2020	 0.384757405396325
2021	 0.385454651680105
2022	 0.386133483025491
2023	 0.386785214310593
2024	 0.387445415368708
2025	 0.388104306035042
2026	 0.388748603613001
2027	 0.389381794479024
2028	 0.389992668022904
2029	 0.390649134020763
2030	 0.391282863190089
2031	 0.391943308764468
2032	 0.392601074358326
2033	 0.393177319387652
2034	 0.393741849094237
2035	 0.394293722078854
2036	 0.394834602130943
2037	 0.395370010228584
2038	 0.395909439857698
2039	 0.396440342444863
2040	 0.396952444377109
2041	 0.397494834240358
2042	 0.397975426657343
2043	 0.398427074047246
2044	 0.398790929455275
2045	 0.3992218933077
2046	 0.399676930455737
2047	 0.400078362341632
2048	 0.400559926252661
2049	 0.401044499598927
2050	 0.401484588901365
2051	 0.401922636617922
2052	 0.402371000700726
2053	 0.402823730335854
2054	 0.403275225738969
2055	 0.40368317100331
2056	 0.404097124133354
2057	 0.404509290134181
2058	 0.404834972566221
2059	 0.405229620750504
2060	 0.405701171176679
2061	 0.406164068303917
2062	 0.406716420768878
2063	 0.407120070133645
2064	 0.407560346682994
2065	 0.408073109934534
2066	 0.408519593251032
2067	 0.408982658379367
2068	 0.409384000040173
2069	 0.409695860597041
2070	 0.410058711105832
2071	 0.410366195213743
2072	 0.410754744548327
2073	 0.411277273462125
2074	 0.411685226563073
2075	 0.412098987014039
2076	 0.412426650186037
2077	 0.412759921014728
2078	 0.412989644042344
2079	 0.413211376179114
2080	 0.41357090081765
2081	 0.413895894001924
2082	 0.414205525786164
2083	 0.414566743274958
2084	 0.415024581565188
2085	 0.415349549764705
2086	 0.415593255487728
2087	 0.41589204380676
2088	 0.416173283214254
2089	 0.416454424427115
2090	 0.416748578383328
2091	 0.417074253352293
2092	 0.417430588193597
2093	 0.417701746921048
2094	 0.417983832138515
2095	 0.418353183009611
2096	 0.41862623390587
2097	 0.418888137820335
2098	 0.419192412885778
2099	 0.419537527857311
2100	 0.419845834789106
2101	 0.420151240690953
2102	 0.420462608321183
2103	 0.420794240365232
2104	 0.421088550738372
2105	 0.421351419667761
2106	 0.421633002395203
2107	 0.421918301018326
2108	 0.422167142857944
2109	 0.422384130087952
2110	 0.422648739637449
2111	 0.422896945282847
2112	 0.423125290708464
2113	 0.423508461234744
2114	 0.423900720404007
2115	 0.4242285185173
2116	 0.424562588376868
2117	 0.424861949073354
2118	 0.425090570114629
2119	 0.425349823288763
2120	 0.425616329379534
2121	 0.425890179889076
2122	 0.426156843241014
2123	 0.426429016943836
2124	 0.426771232956369
2125	 0.426993532967307
2126	 0.427155493049414
2127	 0.427285114577821
2128	 0.427369625748192
2129	 0.427499427311205
2130	 0.42764705575927
2131	 0.427864302196382
2132	 0.428006051360235
2133	 0.428160833403748
2134	 0.428179068392889
2135	 0.42809776377712
2136	 0.42804752246206
2137	 0.427895226226184
2138	 0.427841843237553
2139	 0.427950925892122
2140	 0.427834589455857
2141	 0.427592858323486
2142	 0.42736528082095
2143	 0.427001870852908
2144	 0.426688312834242
2145	 0.426452059582146
2146	 0.426168931901971
2147	 0.425864700284418
2148	 0.425499744921747
2149	 0.425159882638642
2150	 0.424762970997691
2151	 0.424316187965482
2152	 0.42381948978693
2153	 0.423341706333152
2154	 0.422820842136237
2155	 0.422332083181165
2156	 0.421870037839012
2157	 0.421394863851421
2158	 0.420883164079008
2159	 0.420424140622835
2160	 0.420020245387137
2161	 0.41955622741832
2162	 0.419132280117254
2163	 0.418633683083533
2164	 0.418028401427395
2165	 0.417479609821286
2166	 0.416916764932229
2167	 0.416351729429435
2168	 0.415762812989807
2169	 0.415275592968611
2170	 0.414690873930883
2171	 0.414181853122338
2172	 0.413872239512004
2173	 0.413471331243207
2174	 0.413071825468819
2175	 0.412788312437761
2176	 0.412330181188219
2177	 0.411696875193495
2178	 0.411198334757501
2179	 0.410696228372393
2180	 0.410200653229778
2181	 0.409785482976748
2182	 0.409291994821465
2183	 0.408786744619097
2184	 0.408214491593211
2185	 0.407571805478934
2186	 0.406929185019499
2187	 0.406244615882331
2188	 0.405518100205159
2189	 0.404700355953544
2190	 0.403987867526104
2191	 0.403352567033216
2192	 0.402718079464263
2193	 0.402125981706067
2194	 0.401514470110889
2195	 0.400747231193891
2196	 0.399899124020458
2197	 0.399073247808801
2198	 0.398238544971124
2199	 0.397374551651856
2200	 0.39648416104928
2201	 0.39558018356149
2202	 0.394598752373908
2203	 0.393734572118614
2204	 0.392791146019956
2205	 0.392094256763791
2206	 0.391485734200089
2207	 0.391080038058815
2208	 0.390947907411501
2209	 0.390825041717486
2210	 0.390844067900459
2211	 0.39095530266949
2212	 0.391088048781253
2213	 0.391365138142516
2214	 0.391845250211172
2215	 0.392337744640897
2216	 0.392977568206145
2217	 0.393569198570151
2218	 0.394277462717355
2219	 0.394716067104753
2220	 0.394952661664125
2221	 0.395179644291562
2222	 0.395117279077053
2223	 0.395040117889013
2224	 0.395083885126054
2225	 0.395155596646561
2226	 0.395245467616174
2227	 0.395452118344565
2228	 0.395543204139326
2229	 0.395589044322584
2230	 0.395579614454657
2231	 0.395528475450369
2232	 0.395433161966682
2233	 0.395256374356932
2234	 0.395123098752147
2235	 0.394959568086766
2236	 0.394817078302062
2237	 0.39476720382149
2238	 0.394545137622968
2239	 0.394165529196808
2240	 0.393940689433207
2241	 0.393649371887394
2242	 0.393449770983737
2243	 0.393381628413782
2244	 0.393339909580139
2245	 0.393330585751544
2246	 0.393347012627545
2247	 0.393458661179202
2248	 0.39352930595803
2249	 0.393334968357641
2250	 0.393211167421789
2251	 0.392902253596637
2252	 0.39250976275526
2253	 0.392523138931936
2254	 0.392455438801288
2255	 0.392554591316346
2256	 0.392850840307304
2257	 0.392998115715401
2258	 0.393093263400925
2259	 0.393192481777365
2260	 0.39328831422033
2261	 0.393377853109065
2262	 0.393419313177816
2263	 0.393506831417273
2264	 0.393668746969103
2265	 0.393657902314557
2266	 0.393650553711337
2267	 0.393494491305019
2268	 0.393086512786285
2269	 0.392867611987325
2270	 0.392608602432389
2271	 0.392426682372301
2272	 0.3924367232318
2273	 0.3922658438188
2274	 0.392010834572065
2275	 0.391776367324015
2276	 0.391546590123334
2277	 0.391223365809307
2278	 0.3909385566991
2279	 0.3904843677669
2280	 0.389820861278601
2281	 0.38912465699516
2282	 0.388274124155852
2283	 0.387485350293063
2284	 0.386798890046846
2285	 0.386036279229597
2286	 0.385371241856681
2287	 0.384799602246572
2288	 0.384111943535954
2289	 0.383590555694457
2290	 0.38318284347727
2291	 0.382690666997211
2292	 0.382193571283887
2293	 0.381888901290315
2294	 0.381566180191932
2295	 0.381171809629613
2296	 0.380919781819445
2297	 0.380590189272743
2298	 0.380233059246641
2299	 0.379991278203403
2300	 0.379678400620292
2301	 0.379179655421765
2302	 0.378715541181135
2303	 0.378246708086799
2304	 0.377644195992172
2305	 0.376979936865083
2306	 0.376220029579744
2307	 0.375252099275768
2308	 0.374379043811963
2309	 0.373373472497119
2310	 0.372748002367084
2311	 0.372259833711379
2312	 0.371918852712054
2313	 0.37192712287754
2314	 0.371763887144169
2315	 0.3714930815973
2316	 0.371511856779037
2317	 0.371706854718858
2318	 0.371910849161487
2319	 0.372331498463543
2320	 0.372708567969295
2321	 0.373033822517879
2322	 0.373402893019871
2323	 0.37401739767004
2324	 0.37429269875121
2325	 0.374444496161058
2326	 0.374470148358241
2327	 0.374118252133589
2328	 0.374016535515304
2329	 0.373992106093175
2330	 0.373866927858919
2331	 0.373739966737079
2332	 0.373674240951219
2333	 0.373668531625006
2334	 0.373471128004921
2335	 0.37332849962695
2336	 0.373034226797009
2337	 0.372276097046892
2338	 0.371872825829385
2339	 0.371729988581861
2340	 0.371389933877834
2341	 0.371052556468648
2342	 0.370806763485147
2343	 0.370354994318331
2344	 0.369841726713851
2345	 0.369579352320016
2346	 0.369294457571593
2347	 0.368817336325074
2348	 0.368357207941971
2349	 0.367917917407325
2350	 0.3674905632213
2351	 0.367126287741027
2352	 0.366863331401043
2353	 0.366384943699964
2354	 0.365704194987417
2355	 0.365222337572824
2356	 0.364544110692749
2357	 0.363725939729358
2358	 0.363192637300825
2359	 0.36264359940766
2360	 0.362061843375454
2361	 0.361560892834774
2362	 0.361062043437649
2363	 0.36073479160988
2364	 0.3605651737625
2365	 0.360493548935987
2366	 0.360284919440818
2367	 0.35976934338146
2368	 0.359154880561593
2369	 0.358603494595886
2370	 0.358040084036136
2371	 0.357300704366263
2372	 0.35643258946804
2373	 0.355664153281632
2374	 0.355235994750544
2375	 0.354905708364426
2376	 0.354502843099911
2377	 0.353922232652939
2378	 0.352885814500628
2379	 0.351705362134291
2380	 0.350889843928189
2381	 0.35041383855318
2382	 0.35009574702566
2383	 0.349857331530581
2384	 0.349444406124503
2385	 0.34892057996124
2386	 0.348173578941425
2387	 0.347424539979454
2388	 0.347103139184243
2389	 0.346415522643721
2390	 0.345800024595103
2391	 0.345730767718523
2392	 0.345252177485182
2393	 0.344845301330602
2394	 0.344691900159764
2395	 0.344111155298568
2396	 0.343447575233222
2397	 0.342896657979241
2398	 0.342336102974495
2399	 0.342078511295544
2400	 0.342052486160248
2401	 0.342113948472645
2402	 0.342168511743481
2403	 0.341838202346072
2404	 0.341209462796916
2405	 0.34037817062296
2406	 0.339370639173813
2407	 0.338521284963724
2408	 0.337980357937866
2409	 0.33753036743338
2410	 0.337215469231504
2411	 0.337026031952544
2412	 0.336550561532668
2413	 0.335788646379484
2414	 0.335141762405305
2415	 0.334440057515764
2416	 0.333439216035011
2417	 0.332469846011475
2418	 0.331792717031381
2419	 0.331332246385223
2420	 0.330917622602516
2421	 0.330761291111129
2422	 0.33028233875788
2423	 0.329508542513308
2424	 0.328904348964831
2425	 0.328587748934852
2426	 0.327819875827667
2427	 0.326529798854642
2428	 0.32562358032176
2429	 0.324813356857742
2430	 0.324009582967148
2431	 0.323390118462138
2432	 0.322661730470553
2433	 0.321661193341819
2434	 0.320890669832977
2435	 0.320354045388471
2436	 0.319515087595873
2437	 0.318790663647636
2438	 0.317870671133762
2439	 0.316376813660976
2440	 0.315347333804374
2441	 0.314592243164609
2442	 0.313831005596791
2443	 0.314051511543284
2444	 0.314109369097191
2445	 0.31361227504461
2446	 0.313239004725381
2447	 0.312375852170733
2448	 0.311459643728488
2449	 0.310858498754948
2450	 0.309635010684136
2451	 0.308638391557892
2452	 0.308628597541912
2453	 0.308307814106144
2454	 0.30779501045403
2455	 0.307401993688478
2456	 0.306162792019059
2457	 0.304678709899322
2458	 0.304161193606014
2459	 0.303935244744493
2460	 0.303408579473483
2461	 0.30312219181856
2462	 0.302973956619277
2463	 0.302423162338992
2464	 0.301443556894922
2465	 0.300577086644328
2466	 0.299407623135858
2467	 0.298187143286557
2468	 0.297835035276605
2469	 0.297189180972557
2470	 0.296352782771213
2471	 0.29561212169202
2472	 0.295016628683994
2473	 0.294566430408881
2474	 0.293657368052542
2475	 0.293371661530804
2476	 0.293038685481111
2477	 0.292662526099859
2478	 0.292982619970032
2479	 0.291861392061566
2480	 0.290537049117802
2481	 0.289714994178485
2482	 0.289054949670688
2483	 0.289255393706982
2484	 0.289417404225552
2485	 0.288784023669201
2486	 0.288872330643753
2487	 0.288351458101489
2488	 0.28733948808176
2489	 0.286797145337642
2490	 0.284564828168284
2491	 0.282396907862612
2492	 0.281980491777604
2493	 0.281320357628282
2494	 0.282173318454638
2495	 0.284236169141877
2496	 0.284767670422671
2497	 0.284979493535776
2498	 0.284486650254864
2499	 0.282699618544692
2500	 0.281339504769529
