Wavelength	signature0019.asd
350	 8.23469740991882E-02
351	 8.83262123363462E-02
352	 8.39264458878608E-02
353	 7.96451947084118E-02
354	 8.70689583917564E-02
355	 7.64100304370319E-02
356	 7.92052568175924E-02
357	 9.02905256345202E-02
358	 7.96830512176097E-02
359	 7.68951916773807E-02
360	 0.079325692081706
361	 8.09345086961007E-02
362	 7.69914707063581E-02
363	 0.076099955872207
364	 7.61501668977527E-02
365	 7.50423402230925E-02
366	 0.076359629811339
367	 7.85363878949282E-02
368	 8.03403536586143E-02
369	 8.08901542252286E-02
370	 8.01747300156823E-02
371	 7.89053019722425E-02
372	 0.077867741129964
373	 0.077499951856244
374	 7.50097410602939E-02
375	 7.48265300074772E-02
376	 0.077089593587257
377	 7.65780884505612E-02
378	 7.61423171858624E-02
379	 7.78535051145651E-02
380	 0.08084601050033
381	 7.84024689782487E-02
382	 7.78602372374587E-02
383	 7.82466708478995E-02
384	 7.74082457466893E-02
385	 7.94590069537435E-02
386	 8.01600498233785E-02
387	 7.80152516813228E-02
388	 0.074242714796577
389	 7.57238205146563E-02
390	 7.76385161197283E-02
391	 7.86749168005863E-02
392	 8.23022364180315E-02
393	 8.06024005486578E-02
394	 7.94201845515484E-02
395	 8.18145004204033E-02
396	 7.93416504467401E-02
397	 7.93640840729554E-02
398	 0.079908048076558
399	 7.77463426784426E-02
400	 7.68249483164012E-02
401	 7.63706980028896E-02
402	 7.71433670618659E-02
403	 8.00479613064311E-02
404	 7.78107542626812E-02
405	 7.81054600618414E-02
406	 8.16115340967166E-02
407	 7.87617425559074E-02
408	 7.91005654734216E-02
409	 8.02615591996072E-02
410	 7.95553118843807E-02
411	 8.01570447491452E-02
412	 7.88285430724236E-02
413	 7.77403508244327E-02
414	 7.96898131822159E-02
415	 7.92583907929861E-02
416	 7.89667984754918E-02
417	 7.95551505233521E-02
418	 7.99231331125868E-02
419	 0.080097624919716
420	 8.02768478214514E-02
421	 8.06377597709994E-02
422	 0.081375665401453
423	 8.03837365267288E-02
424	 7.95427099235169E-02
425	 8.05812476270493E-02
426	 8.03696324315253E-02
427	 8.00077322910776E-02
428	 7.98727785591955E-02
429	 0.079916032195164
430	 8.09695650903149E-02
431	 8.16334133488558E-02
432	 8.13819463511358E-02
433	 8.11081022303844E-02
434	 0.081137223769945
435	 8.13057018961632E-02
436	 8.14149004689766E-02
437	 0.081619583056863
438	 8.17235940516784E-02
439	 8.16429124414063E-02
440	 8.13752177272209E-02
441	 8.08936192908602E-02
442	 8.12767494934087E-02
443	 8.21206139495926E-02
444	 8.14872418214794E-02
445	 8.18933688948886E-02
446	 8.24495212002574E-02
447	 8.24484734686484E-02
448	 8.34029269696999E-02
449	 8.37377437889217E-02
450	 8.33688486994386E-02
451	 8.29651128313292E-02
452	 8.36894880205907E-02
453	 8.42261734906543E-02
454	 8.41601268174269E-02
455	 8.40724790432793E-02
456	 8.41730479187643E-02
457	 8.43648655564194E-02
458	 8.45702674314882E-02
459	 8.49411882237984E-02
460	 8.49484016059201E-02
461	 0.084872933800323
462	 0.085168551722235
463	 8.56702139247231E-02
464	 8.55996747234808E-02
465	 8.51731997584404E-02
466	 8.53737246798318E-02
467	 8.55071544698012E-02
468	 8.56593378480145E-02
469	 8.58171500762301E-02
470	 8.54983522815648E-02
471	 8.58564418264613E-02
472	 0.086300854131798
473	 8.60353394551863E-02
474	 8.60401355335539E-02
475	 8.62940267561824E-02
476	 8.66967028389965E-02
477	 8.70695735181684E-02
478	 8.68084434361401E-02
479	 8.64928816302375E-02
480	 8.65505127274782E-02
481	 8.68114550964535E-02
482	 8.72868730144404E-02
483	 8.76492523935479E-02
484	 8.76467848853558E-02
485	 8.77563782890111E-02
486	 8.78307974268028E-02
487	 8.79272165583449E-02
488	 8.82321823578393E-02
489	 8.84093732969936E-02
490	 8.86611731042206E-02
491	 8.89765477905695E-02
492	 8.88005822138365E-02
493	 0.088816304416386
494	 8.90461578241374E-02
495	 8.93265424091277E-02
496	 8.97342405021208E-02
497	 8.97799134654847E-02
498	 8.97627169767138E-02
499	 9.04670598554515E-02
500	 9.06334585679941E-02
501	 9.05230329925309E-02
502	 9.05668043590435E-02
503	 9.10921902895626E-02
504	 9.15738539252302E-02
505	 9.16908338063453E-02
506	 9.14231426369794E-02
507	 9.16640376530263E-02
508	 0.092132311834922
509	 9.24727211363877E-02
510	 9.24003864321887E-02
511	 9.29527825385303E-02
512	 9.33897488613046E-02
513	 9.33278932542371E-02
514	 9.37060417664969E-02
515	 9.41186065748547E-02
516	 9.43595643000224E-02
517	 9.43933391917039E-02
518	 9.47591890279021E-02
519	 9.49224935748407E-02
520	 0.094909851124554
521	 0.095285156725549
522	 9.57381053042921E-02
523	 9.60578213995691E-02
524	 9.61938005023745E-02
525	 9.64014126417118E-02
526	 9.66673186534952E-02
527	 9.70307333744604E-02
528	 9.74959303436121E-02
529	 0.09780512038719
530	 9.81247668591372E-02
531	 9.84750334120781E-02
532	 9.86962664054888E-02
533	 9.89631071754335E-02
534	 9.92427979670173E-02
535	 9.95339819520531E-02
536	 0.100057502589033
537	 0.100526087958042
538	 0.100884235852821
539	 0.101214185469491
540	 0.101676321319899
541	 0.102121845584553
542	 0.10255457433795
543	 0.103200540028623
544	 0.103606958789326
545	 0.103908825426315
546	 0.10432456111028
547	 0.104837974181956
548	 0.105470507845348
549	 0.106125597378676
550	 0.106681492608208
551	 0.107491444688441
552	 0.10820335279367
553	 0.108716186305225
554	 0.109448765931528
555	 0.110164515704259
556	 0.110830186003832
557	 0.111481921944965
558	 0.112170491804933
559	 0.11301449233793
560	 0.113927821484566
561	 0.114692015564471
562	 0.115521708443745
563	 0.116297163628324
564	 0.117005743134431
565	 0.117953562208543
566	 0.11881661003472
567	 0.119657646303355
568	 0.120638054622366
569	 0.121691532128563
570	 0.122615360779829
571	 0.123454065461943
572	 0.124482633650585
573	 0.1254520064443
574	 0.126473396572582
575	 0.127627573600214
576	 0.128738095867185
577	 0.129938860516833
578	 0.131112889191315
579	 0.132091588205865
580	 0.133155116237796
581	 0.134168003522073
582	 0.135110492470615
583	 0.136128791864959
584	 0.137114917096411
585	 0.138048633156972
586	 0.138922044053384
587	 0.139672541975223
588	 0.140643600254577
589	 0.141717637169547
590	 0.142575049195853
591	 0.143612417229949
592	 0.144653044585227
593	 0.14557473486173
594	 0.146414813612823
595	 0.147228330146361
596	 0.14798684151706
597	 0.148667946243873
598	 0.149391475291865
599	 0.150110425431048
600	 0.150798530273167
601	 0.151452058105832
602	 0.152188608884792
603	 0.152886178270688
604	 0.153474191945573
605	 0.154028128337748
606	 0.154560302101343
607	 0.155141788814787
608	 0.155799931404022
609	 0.15629906919972
610	 0.156731695381377
611	 0.157194387135084
612	 0.157751038522283
613	 0.158117270141518
614	 0.158458140778614
615	 0.158911749285363
616	 0.159352356822411
617	 0.159826240598891
618	 0.160294291101141
619	 0.160702373926322
620	 0.161097650301958
621	 0.161479971338122
622	 0.161848071705987
623	 0.162205450482991
624	 0.162641628033991
625	 0.162977065492744
626	 0.163134359596197
627	 0.163481584688768
628	 0.163890370700704
629	 0.164244799174189
630	 0.16446568267009
631	 0.164710926491093
632	 0.165112719359576
633	 0.165612259562603
634	 0.165907655808565
635	 0.166272315683683
636	 0.166604542673542
637	 0.166816752564709
638	 0.167198593783706
639	 0.167543667200352
640	 0.167848449799532
641	 0.168223275913375
642	 0.168543861158685
643	 0.168895765737431
644	 0.169297550017148
645	 0.169623471061274
646	 0.169892871238939
647	 0.170225781174297
648	 0.170687694202469
649	 0.171009645947374
650	 0.171277214289292
651	 0.171542253693497
652	 0.171823114163736
653	 0.17211590730037
654	 0.172406001467005
655	 0.172688592117189
656	 0.172972671632978
657	 0.173361492947529
658	 0.173802814632056
659	 0.174188828963287
660	 0.174418945723371
661	 0.174824688955724
662	 0.175323549808462
663	 0.175499272194833
664	 0.175711970776764
665	 0.176039742231149
666	 0.1764574375814
667	 0.176827986971576
668	 0.177230707277793
669	 0.17765886838499
670	 0.178074601564637
671	 0.178448384758681
672	 0.17877397004841
673	 0.179108038380626
674	 0.179550237514976
675	 0.179872332320184
676	 0.18019437456042
677	 0.180608237611152
678	 0.180984020215805
679	 0.181360589335176
680	 0.181721849564725
681	 0.18205819644192
682	 0.182509020437822
683	 0.182935543054918
684	 0.183312683972455
685	 0.183747044356498
686	 0.184212794863096
687	 0.184678406847298
688	 0.185112389171141
689	 0.185474661228523
690	 0.185924704565554
691	 0.18641672453163
692	 0.186836321250018
693	 0.18724033750216
694	 0.187669122128319
695	 0.188121572586651
696	 0.18855695868811
697	 0.18905621929018
698	 0.18947015845484
699	 0.189759358920725
700	 0.190281978222062
701	 0.190720226016027
702	 0.191090112618254
703	 0.191521024325381
704	 0.19192153303744
705	 0.192254968843646
706	 0.192579983263002
707	 0.193036674549872
708	 0.193428466303322
709	 0.193813160467153
710	 0.194244115477109
711	 0.194646778678617
712	 0.194965461080032
713	 0.195282965982964
714	 0.195697933032959
715	 0.196039758536685
716	 0.19638960648745
717	 0.196769724146049
718	 0.197131511429292
719	 0.197484686676149
720	 0.197780171373722
721	 0.198040533312156
722	 0.198479538449171
723	 0.19886316263718
724	 0.199148898138806
725	 0.199389796958908
726	 0.199727680847824
727	 0.2000294881067
728	 0.200285870200935
729	 0.200599345834909
730	 0.200878296432874
731	 0.201149352883855
732	 0.201418645055329
733	 0.201611455232017
734	 0.201842394103926
735	 0.202099142463107
736	 0.202344700480127
737	 0.202638125037127
738	 0.202891682362596
739	 0.203106289848928
740	 0.203342453655559
741	 0.203520995267682
742	 0.203718987893068
743	 0.203965346227749
744	 0.20418489502525
745	 0.204302734086261
746	 0.204413707824868
747	 0.204601757919054
748	 0.20472989793418
749	 0.204912092277957
750	 0.205106111629186
751	 0.205210388182188
752	 0.205406719115089
753	 0.205579091633023
754	 0.205695293672151
755	 0.205855936276397
756	 0.20596580156447
757	 0.206060626150558
758	 0.206169155892243
759	 0.206226549834626
760	 0.206281945010991
761	 0.206336787048455
762	 0.206379753239347
763	 0.20643453391782
764	 0.20652948865329
765	 0.206607957879954
766	 0.206560700062344
767	 0.206583001050212
768	 0.20662131352277
769	 0.206641525424903
770	 0.206715583841497
771	 0.206789671059707
772	 0.206837568769445
773	 0.206846112916793
774	 0.206807502736101
775	 0.206818617669184
776	 0.206870138699105
777	 0.206895281438665
778	 0.206919348692437
779	 0.206914498283654
780	 0.206895574971941
781	 0.20692486454286
782	 0.20693363585744
783	 0.206875503983767
784	 0.206774250561199
785	 0.206802891566969
786	 0.206742187208112
787	 0.206681854041042
788	 0.20674617700205
789	 0.206726489613385
790	 0.206659686193525
791	 0.206619263754429
792	 0.206668758237373
793	 0.206611181567586
794	 0.20654847410804
795	 0.206486396765583
796	 0.206276512175842
797	 0.206213499974851
798	 0.206178884925396
799	 0.206065065751293
800	 0.2060213057566
801	 0.205949296117452
802	 0.205846317634182
803	 0.20574184691548
804	 0.205646009732979
805	 0.205560949494653
806	 0.205500269649583
807	 0.205463215822616
808	 0.205257296147258
809	 0.20516567836157
810	 0.205216653677772
811	 0.205088735429628
812	 0.205049097551779
813	 0.204978089200904
814	 0.20481340923517
815	 0.204780101752061
816	 0.20469073137168
817	 0.204622312039101
818	 0.204646323535334
819	 0.204475650211479
820	 0.204434699784363
821	 0.204470606773313
822	 0.204352189243688
823	 0.20420920087081
824	 0.20415934894154
825	 0.204175335587802
826	 0.204098022940734
827	 0.203922216480575
828	 0.203871486831497
829	 0.203966711502369
830	 0.203860636851102
831	 0.20378500552998
832	 0.203720930819084
833	 0.203635091249263
834	 0.203633020135947
835	 0.203527428788545
836	 0.20340002414021
837	 0.203376549553432
838	 0.203282988627337
839	 0.203245678705516
840	 0.20321956848586
841	 0.203089899158724
842	 0.203087709516214
843	 0.203100690999946
844	 0.203024607857554
845	 0.202827519072925
846	 0.202846820041825
847	 0.202896042369636
848	 0.202833403685706
849	 0.202726207688193
850	 0.202749860045852
851	 0.202737733609022
852	 0.202598927914044
853	 0.202640295309364
854	 0.20257402695993
855	 0.202477258226861
856	 0.202477283389485
857	 0.202406362484003
858	 0.202428501448173
859	 0.202524007129008
860	 0.202572966637689
861	 0.202475886109833
862	 0.202453872764561
863	 0.202480622168706
864	 0.202368505401602
865	 0.202328506561012
866	 0.20238418730603
867	 0.202447174072331
868	 0.20236429233734
869	 0.202452228875641
870	 0.202512104062257
871	 0.202498273239576
872	 0.202710630399937
873	 0.20269411203514
874	 0.202626998281913
875	 0.202678705767763
876	 0.202678685232909
877	 0.202660909185914
878	 0.202678569720046
879	 0.202760061929094
880	 0.202843403120105
881	 0.202870939228287
882	 0.202889644600405
883	 0.202964726860049
884	 0.203040503622947
885	 0.203171967158315
886	 0.203272410855116
887	 0.203237696975067
888	 0.203275614198018
889	 0.203322945665339
890	 0.203378483700741
891	 0.203483594790086
892	 0.203604671477833
893	 0.203659943679156
894	 0.203724681260012
895	 0.203963452843671
896	 0.203993072934764
897	 0.204089654451649
898	 0.204290611204582
899	 0.204303694744161
900	 0.204360225964666
901	 0.204542526319202
902	 0.204771273548886
903	 0.204808348057941
904	 0.205012990099385
905	 0.205186861440307
906	 0.205188863127319
907	 0.205163747798857
908	 0.205423833486644
909	 0.205718657230739
910	 0.205844620269566
911	 0.205985928525814
912	 0.206070230731346
913	 0.206172270307039
914	 0.206374013471004
915	 0.206698626770519
916	 0.206808305290054
917	 0.206868341285687
918	 0.207069423155949
919	 0.207199749037244
920	 0.207412472048443
921	 0.207567189641645
922	 0.207591041606227
923	 0.207939526892325
924	 0.208191696304029
925	 0.20829732203449
926	 0.208391121109515
927	 0.208717287235598
928	 0.20892013188649
929	 0.209065794600948
930	 0.209336449584623
931	 0.20965074054655
932	 0.209749948510383
933	 0.209765547973338
934	 0.20994501832982
935	 0.210246401781511
936	 0.210344103609513
937	 0.210399319181885
938	 0.210681041342021
939	 0.210867167472651
940	 0.211146997434132
941	 0.211419512164437
942	 0.211560500446128
943	 0.211992301513526
944	 0.212114145481843
945	 0.21211538654614
946	 0.212442740893556
947	 0.21286949836236
948	 0.212987026693695
949	 0.213084070331754
950	 0.213558968402487
951	 0.213795569565465
952	 0.213837438860209
953	 0.214094832039908
954	 0.214796449256176
955	 0.214829934807671
956	 0.215091785419085
957	 0.215494205593682
958	 0.215685479912931
959	 0.21614955575833
960	 0.216213025409375
961	 0.216271579826914
962	 0.216804263445376
963	 0.216964431036833
964	 0.217455099555658
965	 0.217894359974471
966	 0.21785943233015
967	 0.218045186986662
968	 0.218595190130718
969	 0.219031895396491
970	 0.219081902823198
971	 0.219615990422796
972	 0.219977079891475
973	 0.220307840797546
974	 0.220780603995089
975	 0.221102143321815
976	 0.221194968843175
977	 0.221381580750532
978	 0.221795408114365
979	 0.222020711104458
980	 0.222000037699353
981	 0.222374530177044
982	 0.223166022232177
983	 0.223294301416616
984	 0.223427885397985
985	 0.223993666063405
986	 0.224731676696649
987	 0.224757146557729
988	 0.225302787348692
989	 0.225677269348931
990	 0.225734514028402
991	 0.226072908584686
992	 0.226260266213313
993	 0.226706075126744
994	 0.227048884810549
995	 0.226677808155288
996	 0.227455194827225
997	 0.228279121646715
998	 0.228692861902843
999	 0.228846024623861
1000	 0.229007178454677
1001	 0.230297476676882
1002	 0.23069703434964
1003	 0.2311104093794
1004	 0.231338183094024
1005	 0.231517153353393
1006	 0.231796493599565
1007	 0.232238257696548
1008	 0.232769681845285
1009	 0.233133925430003
1010	 0.233501084913272
1011	 0.233636139923337
1012	 0.233623380296153
1013	 0.233741849246799
1014	 0.23393349306179
1015	 0.234153113445077
1016	 0.234506064935679
1017	 0.23481691021374
1018	 0.235125476137314
1019	 0.235591870503859
1020	 0.235891229346667
1021	 0.236053123383906
1022	 0.236313774876201
1023	 0.23659415237894
1024	 0.236829461832182
1025	 0.237106708843996
1026	 0.237378630935215
1027	 0.237620211084344
1028	 0.237775674030895
1029	 0.237932920148968
1030	 0.238168915083224
1031	 0.238439878759029
1032	 0.238713261527873
1033	 0.239072719448764
1034	 0.239707332340552
1035	 0.240112744375386
1036	 0.240241405825623
1037	 0.24045052461095
1038	 0.24064774458626
1039	 0.24069833285276
1040	 0.240854604200329
1041	 0.241127681154591
1042	 0.241298079672879
1043	 0.241459155918985
1044	 0.241673675687639
1045	 0.24198100083424
1046	 0.24232577866288
1047	 0.242613534001261
1048	 0.24283300463
1049	 0.243015608747921
1050	 0.243289689447701
1051	 0.243578750228631
1052	 0.243859195850485
1053	 0.244138503375229
1054	 0.244443766584361
1055	 0.244692642391498
1056	 0.245043902081979
1057	 0.24538700839077
1058	 0.245649731361704
1059	 0.245946549605677
1060	 0.246161280418939
1061	 0.246401478563002
1062	 0.246753703604015
1063	 0.247073532895982
1064	 0.247344591726929
1065	 0.247522701777813
1066	 0.247759002464063
1067	 0.248117259475129
1068	 0.248408092838527
1069	 0.248745242532167
1070	 0.24902051819928
1071	 0.249255004168222
1072	 0.249393922136503
1073	 0.249645058997949
1074	 0.249939812678616
1075	 0.250247786047848
1076	 0.250544247176657
1077	 0.25079227311782
1078	 0.251047988427625
1079	 0.25134782907969
1080	 0.251646031161429
1081	 0.25190333501889
1082	 0.252161723978138
1083	 0.252434638043398
1084	 0.252714149578865
1085	 0.252964087852541
1086	 0.25320389665948
1087	 0.253456029606905
1088	 0.253675530324248
1089	 0.253893316303391
1090	 0.254227477108399
1091	 0.254577842726535
1092	 0.254856205187265
1093	 0.255144685268031
1094	 0.255424742199166
1095	 0.255650199324389
1096	 0.255859651684008
1097	 0.256140222611036
1098	 0.256412575788958
1099	 0.2566832802364
1100	 0.256942309318673
1101	 0.257201847906282
1102	 0.257473541997078
1103	 0.25775774890274
1104	 0.257982662909318
1105	 0.25822312147486
1106	 0.258473056625343
1107	 0.258662573213828
1108	 0.258916335690249
1109	 0.25919833317673
1110	 0.259468268331217
1111	 0.259756421340442
1112	 0.260009289192045
1113	 0.260264798291794
1114	 0.2605418992189
1115	 0.260782366448055
1116	 0.260997062170336
1117	 0.261213363561855
1118	 0.261388421094592
1119	 0.261589729925953
1120	 0.261796666088793
1121	 0.262021779386735
1122	 0.26223944459617
1123	 0.262491816939985
1124	 0.262752780431471
1125	 0.263000265862497
1126	 0.263254755705615
1127	 0.263540886550771
1128	 0.263819944583783
1129	 0.264105548564779
1130	 0.2643515246839
1131	 0.264534746258305
1132	 0.26480227871566
1133	 0.265107428647178
1134	 0.26536751115406
1135	 0.265661169713303
1136	 0.265951166566626
1137	 0.266195651272621
1138	 0.266436829008955
1139	 0.266690227494344
1140	 0.266977631236427
1141	 0.267164420204948
1142	 0.267369783299423
1143	 0.267637824012707
1144	 0.267870098190489
1145	 0.268099859605233
1146	 0.268343030486094
1147	 0.268577997522981
1148	 0.268802529301226
1149	 0.269001283872063
1150	 0.269159995569081
1151	 0.269390567940491
1152	 0.269634032330802
1153	 0.269877053297945
1154	 0.270193398132896
1155	 0.270463967654342
1156	 0.270692952182318
1157	 0.270915580774251
1158	 0.271178013331857
1159	 0.271446215634992
1160	 0.271761970480358
1161	 0.272068865078269
1162	 0.272339402942063
1163	 0.272590139811906
1164	 0.272865182136406
1165	 0.273126006607153
1166	 0.273387469959789
1167	 0.273673820726732
1168	 0.273942139442435
1169	 0.274184677809008
1170	 0.274434213281915
1171	 0.27468446755581
1172	 0.27494789240205
1173	 0.275192243361214
1174	 0.275467984216012
1175	 0.275776064434282
1176	 0.276096066500823
1177	 0.276405826411442
1178	 0.276657629757083
1179	 0.276885372375257
1180	 0.277128003017661
1181	 0.277367400680363
1182	 0.277617766869871
1183	 0.277845095111253
1184	 0.278042530891632
1185	 0.278269804318762
1186	 0.278506454511372
1187	 0.278733115684937
1188	 0.278968671185723
1189	 0.279216029931987
1190	 0.279460552813696
1191	 0.27969154647885
1192	 0.279951354947573
1193	 0.280180423019317
1194	 0.280373653083315
1195	 0.280569386390661
1196	 0.280763398489047
1197	 0.280931785496209
1198	 0.281137059605491
1199	 0.281347915081039
1200	 0.281571626043846
1201	 0.28183345070121
1202	 0.282055072867997
1203	 0.282264935390212
1204	 0.282470331917459
1205	 0.282642195173344
1206	 0.282852797875292
1207	 0.283103891447532
1208	 0.283308832210281
1209	 0.283501174301922
1210	 0.283701339551564
1211	 0.283856851880106
1212	 0.284046282104601
1213	 0.284259090321992
1214	 0.284511270826514
1215	 0.28469359964474
1216	 0.284852852442898
1217	 0.285007569568834
1218	 0.285099809856724
1219	 0.285273267771855
1220	 0.285484896681035
1221	 0.285682804603909
1222	 0.285926204906804
1223	 0.286111810458154
1224	 0.286265362758752
1225	 0.286427711240284
1226	 0.286553208157706
1227	 0.286719288333812
1228	 0.286898831021315
1229	 0.287087616034239
1230	 0.287327616697592
1231	 0.287519034509009
1232	 0.287681750328737
1233	 0.287861087931023
1234	 0.28804443021073
1235	 0.28818671709037
1236	 0.288346111760526
1237	 0.288514703313932
1238	 0.288687566518765
1239	 0.288852382769517
1240	 0.289020263666262
1241	 0.289210598770364
1242	 0.289376481447612
1243	 0.289511612834061
1244	 0.289675815524414
1245	 0.289859956660903
1246	 0.290023143692374
1247	 0.290180346538261
1248	 0.290346345201919
1249	 0.290500406638197
1250	 0.290664196689304
1251	 0.290865883045271
1252	 0.291027928389372
1253	 0.291144866319324
1254	 0.291295692779693
1255	 0.291452133946959
1256	 0.291605460621383
1257	 0.291747698502311
1258	 0.2919254369659
1259	 0.292032285364003
1260	 0.29204530585257
1261	 0.292190801332175
1262	 0.292376981946645
1263	 0.29254259004305
1264	 0.292821117595434
1265	 0.292960545168943
1266	 0.29297566425507
1267	 0.293070363040739
1268	 0.29313898294322
1269	 0.293239439712736
1270	 0.293418099460545
1271	 0.293531328430108
1272	 0.293597123946596
1273	 0.293693028416918
1274	 0.293764840241937
1275	 0.293861831951738
1276	 0.294028312679988
1277	 0.294138553024408
1278	 0.294227452101971
1279	 0.294303812886513
1280	 0.294361317924849
1281	 0.29436666798919
1282	 0.294420726841913
1283	 0.294485945871486
1284	 0.294551266979126
1285	 0.294619735003037
1286	 0.294708666859822
1287	 0.294823395116135
1288	 0.294905665189068
1289	 0.295011080644353
1290	 0.295074743665205
1291	 0.295092586875323
1292	 0.295117148071436
1293	 0.295117215036372
1294	 0.29513222765346
1295	 0.295144068813328
1296	 0.295160613828181
1297	 0.295179038130115
1298	 0.295213628391587
1299	 0.295263666946064
1300	 0.295311307059008
1301	 0.295342894935504
1302	 0.295385243609467
1303	 0.29540054949093
1304	 0.295380902912462
1305	 0.295388426316565
1306	 0.295401630357903
1307	 0.295405159316456
1308	 0.295429485191204
1309	 0.295408182614392
1310	 0.295347837687142
1311	 0.295319464312226
1312	 0.295262345074
1313	 0.295239060148176
1314	 0.295269236404916
1315	 0.295258012293285
1316	 0.295233561585783
1317	 0.295213495494277
1318	 0.295164567480477
1319	 0.29514820454242
1320	 0.29517964362527
1321	 0.295168272911853
1322	 0.295127184043247
1323	 0.295111842676827
1324	 0.295091553081419
1325	 0.295077012733063
1326	 0.295036887288826
1327	 0.294993233551483
1328	 0.294943256499459
1329	 0.294840502089218
1330	 0.294785484070942
1331	 0.294766865541375
1332	 0.2947281849555
1333	 0.294683712571598
1334	 0.294645762275083
1335	 0.294617506866202
1336	 0.29457668487863
1337	 0.294528782366236
1338	 0.294483940611707
1339	 0.294426853484595
1340	 0.294388510211171
1341	 0.29437924649503
1342	 0.294335554731956
1343	 0.294278632938286
1344	 0.294225454543393
1345	 0.294148324185644
1346	 0.29408346586102
1347	 0.294040785124345
1348	 0.29398477644539
1349	 0.293935689150877
1350	 0.293855220298479
1351	 0.293766691405053
1352	 0.293678804803215
1353	 0.293571330909172
1354	 0.293482794058772
1355	 0.293400670252169
1356	 0.293329132131966
1357	 0.293245833279678
1358	 0.293175534587582
1359	 0.293080874098967
1360	 0.292968340607081
1361	 0.292866080190685
1362	 0.292755207050151
1363	 0.292650005950671
1364	 0.292554936290585
1365	 0.292447022331838
1366	 0.292358989001503
1367	 0.292218524568895
1368	 0.292065231241082
1369	 0.291872363042988
1370	 0.291638299080124
1371	 0.291384407771866
1372	 0.291111320493745
1373	 0.290805856833833
1374	 0.290521698274846
1375	 0.290123660110266
1376	 0.289640102686802
1377	 0.28914294425685
1378	 0.288560058518157
1379	 0.287892655862045
1380	 0.287219168451731
1381	 0.286475007574976
1382	 0.28569813849032
1383	 0.284895075940679
1384	 0.284114161659279
1385	 0.283318498124701
1386	 0.282578307454411
1387	 0.281850026354431
1388	 0.281169190842779
1389	 0.280529564201075
1390	 0.27990409053314
1391	 0.279314229300053
1392	 0.278715973534918
1393	 0.278167222830826
1394	 0.277541309326423
1395	 0.27690869506567
1396	 0.276210475991587
1397	 0.27545402973846
1398	 0.274665808146442
1399	 0.273854818133379
1400	 0.272972032490073
1401	 0.27203617203639
1402	 0.271051861646333
1403	 0.269960728739446
1404	 0.268903280632901
1405	 0.267806772402587
1406	 0.266738695253576
1407	 0.265652613439332
1408	 0.264633546545477
1409	 0.263622619105335
1410	 0.262686307114738
1411	 0.261879886381169
1412	 0.261211021456835
1413	 0.26074238507027
1414	 0.260418952766493
1415	 0.260260910724492
1416	 0.260214185048814
1417	 0.26021045819814
1418	 0.260319357389977
1419	 0.260428821970671
1420	 0.26059608192671
1421	 0.260772102528115
1422	 0.261004146387484
1423	 0.261194316056622
1424	 0.261393399098332
1425	 0.261581493437388
1426	 0.261735868313476
1427	 0.261926795766999
1428	 0.26214497299452
1429	 0.2623404852869
1430	 0.262530090464691
1431	 0.262742575982682
1432	 0.262945585185131
1433	 0.263174490406586
1434	 0.263443815614316
1435	 0.263690894150336
1436	 0.263916624006213
1437	 0.264181025681445
1438	 0.264474607481569
1439	 0.264752536133686
1440	 0.265054703510672
1441	 0.265340303868449
1442	 0.26559913982748
1443	 0.265871128147832
1444	 0.266151178867406
1445	 0.266437293810255
1446	 0.266692701935972
1447	 0.266917570614401
1448	 0.267120152216426
1449	 0.267298849917689
1450	 0.26750353992779
1451	 0.267702430503817
1452	 0.26787215550394
1453	 0.268044994458773
1454	 0.268197395433803
1455	 0.268328067136285
1456	 0.268468841923577
1457	 0.268607778483498
1458	 0.268749920565385
1459	 0.268895394307239
1460	 0.269030791303129
1461	 0.269172650081136
1462	 0.269299241098022
1463	 0.269385558459617
1464	 0.269533534481559
1465	 0.269708452221624
1466	 0.269869454479124
1467	 0.2700445282564
1468	 0.270244177678929
1469	 0.270428718120062
1470	 0.270663840041828
1471	 0.270960198788457
1472	 0.271247365898241
1473	 0.27155073496904
1474	 0.271845242288428
1475	 0.272148902901806
1476	 0.272454391973819
1477	 0.272751607231453
1478	 0.273065623542625
1479	 0.273401004774535
1480	 0.27371775209357
1481	 0.27403580301824
1482	 0.274353952826138
1483	 0.274663419598836
1484	 0.2749737485605
1485	 0.275283383498727
1486	 0.27558889652435
1487	 0.275894605251695
1488	 0.276196596512293
1489	 0.276486096060247
1490	 0.276792572047798
1491	 0.277121451575664
1492	 0.277418768900179
1493	 0.277702754005128
1494	 0.278000503988923
1495	 0.278267563186646
1496	 0.278519443932285
1497	 0.278785491538462
1498	 0.279043346069498
1499	 0.27932223069192
1500	 0.279580753719056
1501	 0.279802107244745
1502	 0.28006784614314
1503	 0.280282844055733
1504	 0.280488434353582
1505	 0.280747430681021
1506	 0.280969822520934
1507	 0.281209535677681
1508	 0.281472056112549
1509	 0.281694728295578
1510	 0.281892866993656
1511	 0.28211025674857
1512	 0.282314370251492
1513	 0.282524613303547
1514	 0.282765026064325
1515	 0.282961495915935
1516	 0.283128618343105
1517	 0.283306082010151
1518	 0.283465049063455
1519	 0.283637035313748
1520	 0.283812628138772
1521	 0.28399496531975
1522	 0.284187958480502
1523	 0.284360120808251
1524	 0.284539497705226
1525	 0.284703556274004
1526	 0.284839598613317
1527	 0.284991930133689
1528	 0.285161967636288
1529	 0.285276186954012
1530	 0.285348001804975
1531	 0.285474896372364
1532	 0.285570792303728
1533	 0.285730147891481
1534	 0.285994178534681
1535	 0.286164917028033
1536	 0.286312141927772
1537	 0.286456888291065
1538	 0.286560213905508
1539	 0.286674826984286
1540	 0.286782022605603
1541	 0.286911640163963
1542	 0.287057484295776
1543	 0.287177160794844
1544	 0.287321407347891
1545	 0.287432394564305
1546	 0.287494738196978
1547	 0.287573489669988
1548	 0.287627262219722
1549	 0.287714795704656
1550	 0.287834537274315
1551	 0.287935460908209
1552	 0.288048701368832
1553	 0.288158632906016
1554	 0.288249983721961
1555	 0.288340496107158
1556	 0.288423121456294
1557	 0.288536841161811
1558	 0.288669769153622
1559	 0.2887917334492
1560	 0.28894013711167
1561	 0.289067926605744
1562	 0.289172160042537
1563	 0.289272638274741
1564	 0.289381755790273
1565	 0.289472479315213
1566	 0.289526892134128
1567	 0.289603606487571
1568	 0.289671488504866
1569	 0.289754574292732
1570	 0.289872457323931
1571	 0.289973069435652
1572	 0.290095022928129
1573	 0.290175821878757
1574	 0.29021615780003
1575	 0.290252411377618
1576	 0.290320236623371
1577	 0.290403580295426
1578	 0.290474702702704
1579	 0.290562809851316
1580	 0.290641349082805
1581	 0.290691352217456
1582	 0.290788877689914
1583	 0.290891639692304
1584	 0.290985045726347
1585	 0.291081143518354
1586	 0.291151579690347
1587	 0.291258990178686
1588	 0.291381358731031
1589	 0.291469384737295
1590	 0.291574176983074
1591	 0.291672939789376
1592	 0.291743814226139
1593	 0.291820507987227
1594	 0.291909864256296
1595	 0.291983782143789
1596	 0.292019272230814
1597	 0.29206698653154
1598	 0.292124823323498
1599	 0.292202344101893
1600	 0.292338541804572
1601	 0.292442584381712
1602	 0.292525956374016
1603	 0.292617390448856
1604	 0.292677465122912
1605	 0.292733672437045
1606	 0.292777682690487
1607	 0.292848184430512
1608	 0.292936067272014
1609	 0.292993924656555
1610	 0.293049432404925
1611	 0.293084803921116
1612	 0.293076591209374
1613	 0.293078561839547
1614	 0.293123374676966
1615	 0.29316448707829
1616	 0.293228649644642
1617	 0.293329888081604
1618	 0.293398058813293
1619	 0.293458540346734
1620	 0.293532703705557
1621	 0.293594768150737
1622	 0.293695965495089
1623	 0.293820704857028
1624	 0.293946894408166
1625	 0.294108216007416
1626	 0.294198801414811
1627	 0.294264239805501
1628	 0.294336934982146
1629	 0.29439509177977
1630	 0.294476513511078
1631	 0.294585151836309
1632	 0.294644451034041
1633	 0.294673575953142
1634	 0.294731974041234
1635	 0.294786593840568
1636	 0.294848571595664
1637	 0.294907041766071
1638	 0.294949155854172
1639	 0.294986771107074
1640	 0.295026202311014
1641	 0.295074958699181
1642	 0.295137432333863
1643	 0.295187756883424
1644	 0.295230512799443
1645	 0.295284216712289
1646	 0.295337591948216
1647	 0.295388054482893
1648	 0.295441087851163
1649	 0.295504956559631
1650	 0.295562367320938
1651	 0.295632890308553
1652	 0.295760620829316
1653	 0.29582922129936
1654	 0.295869236706269
1655	 0.295897819263293
1656	 0.295836864940552
1657	 0.29584840124993
1658	 0.29591231671635
1659	 0.2959609150645
1660	 0.296051667668426
1661	 0.296121077529885
1662	 0.296172951810124
1663	 0.296212513146938
1664	 0.296248805729148
1665	 0.296272186794232
1666	 0.29624595850333
1667	 0.296263909444905
1668	 0.296322944591282
1669	 0.296345738009372
1670	 0.296376111632285
1671	 0.296395129722963
1672	 0.296375228386493
1673	 0.296367676966557
1674	 0.296371892083478
1675	 0.296369008757829
1676	 0.296326555808708
1677	 0.296344723438646
1678	 0.296407360233397
1679	 0.296455616300148
1680	 0.296556643236293
1681	 0.296609342017707
1682	 0.296612169093173
1683	 0.296644245605291
1684	 0.296682070236445
1685	 0.296705728671561
1686	 0.296726168094895
1687	 0.29675439288618
1688	 0.296767843600532
1689	 0.296795716489304
1690	 0.296858815254061
1691	 0.296889326644691
1692	 0.296909959630266
1693	 0.296918021765474
1694	 0.296901913258606
1695	 0.296885867840222
1696	 0.296847366832481
1697	 0.29683992769367
1698	 0.296835888095208
1699	 0.296857190847261
1700	 0.296934827481515
1701	 0.296947894267574
1702	 0.29694697418217
1703	 0.296929658185198
1704	 0.296858628920078
1705	 0.296829566426947
1706	 0.296803192041741
1707	 0.296795626853531
1708	 0.296815780356714
1709	 0.296815466591834
1710	 0.296831749211682
1711	 0.296821309385444
1712	 0.296792456283168
1713	 0.296754072564064
1714	 0.296697518375909
1715	 0.296646104313703
1716	 0.296593282233069
1717	 0.296510373905818
1718	 0.29639996971452
1719	 0.296334401880876
1720	 0.296285623449633
1721	 0.296288148908536
1722	 0.296271041987112
1723	 0.296210942216896
1724	 0.296148685768402
1725	 0.296026472773718
1726	 0.295922745063227
1727	 0.295822079044783
1728	 0.295670740604139
1729	 0.295585647099514
1730	 0.295538039491078
1731	 0.295470984939231
1732	 0.295378560357982
1733	 0.295243634627514
1734	 0.295101379318214
1735	 0.294975438425592
1736	 0.294869454140045
1737	 0.294791452174751
1738	 0.294703041526406
1739	 0.294634575807152
1740	 0.294534710292828
1741	 0.294415043778075
1742	 0.294299391404651
1743	 0.29414269656406
1744	 0.294036523886552
1745	 0.293990637618754
1746	 0.293886741259378
1747	 0.293772572848659
1748	 0.293646916111331
1749	 0.293456004030915
1750	 0.293341416829666
1751	 0.29328783432156
1752	 0.293195214646407
1753	 0.293126984351799
1754	 0.29301134364492
1755	 0.29283474055477
1756	 0.292710640186818
1757	 0.292577983003507
1758	 0.292483628358927
1759	 0.292451157552253
1760	 0.292318843585976
1761	 0.29222353559025
1762	 0.292124554985581
1763	 0.292009348358957
1764	 0.292022284214508
1765	 0.292123713224495
1766	 0.292124007525282
1767	 0.29208995480704
1768	 0.291913228468303
1769	 0.291547519474357
1770	 0.291348092672583
1771	 0.291217509171362
1772	 0.291128844915056
1773	 0.291190126276807
1774	 0.291144530620312
1775	 0.291003516941345
1776	 0.290915713257767
1777	 0.29085831569869
1778	 0.290840825147772
1779	 0.290860755715281
1780	 0.290776821365085
1781	 0.290723067182904
1782	 0.290639286226764
1783	 0.290563875523657
1784	 0.290531852125543
1785	 0.29050749160659
1786	 0.290455043909465
1787	 0.290405710706695
1788	 0.290377109311963
1789	 0.290393261430045
1790	 0.290413939818029
1791	 0.290450956303962
1792	 0.290560155060326
1793	 0.290581162203719
1794	 0.290593061059534
1795	 0.290582091023052
1796	 0.290541064921293
1797	 0.290528079662367
1798	 0.290469613928807
1799	 0.290392946884259
1800	 0.290357943652754
1801	 0.290289306345173
1802	 0.290284187559301
1803	 0.290357254907809
1804	 0.290453330900408
1805	 0.290544577131173
1806	 0.290570345879655
1807	 0.290576801093227
1808	 0.290569328042198
1809	 0.290538952964492
1810	 0.290570220443732
1811	 0.290659040379251
1812	 0.290719965653942
1813	 0.290834382823199
1814	 0.290858451652048
1815	 0.29075934602936
1816	 0.290742015727466
1817	 0.290734817608241
1818	 0.290725519650044
1819	 0.290710485394506
1820	 0.290685348098356
1821	 0.290715025085296
1822	 0.290753959415746
1823	 0.29078348088647
1824	 0.29078621920841
1825	 0.290801748406596
1826	 0.290861401952883
1827	 0.290876143107623
1828	 0.290896663474121
1829	 0.290885393409928
1830	 0.290819227677474
1831	 0.295661924046802
1832	 0.295485215607723
1833	 0.295372133233915
1834	 0.295345459074019
1835	 0.295438684199274
1836	 0.29544086940022
1837	 0.295481771636469
1838	 0.295475654895524
1839	 0.295420314281075
1840	 0.295342337907192
1841	 0.295245507909208
1842	 0.295217978154301
1843	 0.295173913487034
1844	 0.29512403301076
1845	 0.295059030677722
1846	 0.29502745317175
1847	 0.294917774754184
1848	 0.294758651571582
1849	 0.294575326214189
1850	 0.294351086631632
1851	 0.294218038932969
1852	 0.294027155205375
1853	 0.293792480181222
1854	 0.293587942101256
1855	 0.293420705769291
1856	 0.293155581276793
1857	 0.292865450690851
1858	 0.292546243677484
1859	 0.292187015377773
1860	 0.291769065300124
1861	 0.291336900821859
1862	 0.290829580915202
1863	 0.290157958041292
1864	 0.289397623948388
1865	 0.288663964730533
1866	 0.287930999352094
1867	 0.287057166695677
1868	 0.28612022307453
1869	 0.285169588676062
1870	 0.284070452422098
1871	 0.282838849565517
1872	 0.281617397222541
1873	 0.280253370803702
1874	 0.278807416533874
1875	 0.277308388629996
1876	 0.275863406670792
1877	 0.274453226049796
1878	 0.272862772218255
1879	 0.271199620692075
1880	 0.26943473846282
1881	 0.267469694048739
1882	 0.265386336675362
1883	 0.26325503211187
1884	 0.261067685605737
1885	 0.25883832011146
1886	 0.256441273967657
1887	 0.253938368535914
1888	 0.251323926812626
1889	 0.248634803181721
1890	 0.245845243551986
1891	 0.242997685026095
1892	 0.239959928240247
1893	 0.236872688876614
1894	 0.233752683648488
1895	 0.230609454877596
1896	 0.227565814217254
1897	 0.224557347660584
1898	 0.221529183629219
1899	 0.218624955468147
1900	 0.215879948001894
1901	 0.213230659121757
1902	 0.210783512393502
1903	 0.20858551647122
1904	 0.20644205168274
1905	 0.204515031914936
1906	 0.202807745561989
1907	 0.201152872073466
1908	 0.199688938375987
1909	 0.198455030816583
1910	 0.197289831380117
1911	 0.196308920411045
1912	 0.195494652261172
1913	 0.194934384826575
1914	 0.194502598988883
1915	 0.194150448295391
1916	 0.193966837327768
1917	 0.193910481744869
1918	 0.193909468904107
1919	 0.194109714064327
1920	 0.194421256310696
1921	 0.194741255628447
1922	 0.195126081205896
1923	 0.195461362682104
1924	 0.195772243339146
1925	 0.19607620810376
1926	 0.196476859173207
1927	 0.19686537753131
1928	 0.197382439650227
1929	 0.197978318696382
1930	 0.198445272854556
1931	 0.198935996904429
1932	 0.199440540410976
1933	 0.199804574782958
1934	 0.20020018175163
1935	 0.200615893105065
1936	 0.201024159028872
1937	 0.201324145457857
1938	 0.20173629172851
1939	 0.202237525013593
1940	 0.202694331225981
1941	 0.20313164135286
1942	 0.20361962926523
1943	 0.204097066194908
1944	 0.204607319275493
1945	 0.205132730491337
1946	 0.205755567891646
1947	 0.206264838332377
1948	 0.206727055234543
1949	 0.207164096479708
1950	 0.207673789795291
1951	 0.208171164880353
1952	 0.208683212862134
1953	 0.20927450812415
1954	 0.209756507310359
1955	 0.210227356179462
1956	 0.21073016801523
1957	 0.211115933709532
1958	 0.211617704648255
1959	 0.212195318362744
1960	 0.212737458896835
1961	 0.213301753154111
1962	 0.213925091283767
1963	 0.214466926236993
1964	 0.214934991879782
1965	 0.215490057583197
1966	 0.216121173000578
1967	 0.216737447189451
1968	 0.217380953051112
1969	 0.217972448294729
1970	 0.218496781916086
1971	 0.219069326266423
1972	 0.219622499869468
1973	 0.220213285355222
1974	 0.220838213350663
1975	 0.221512121622638
1976	 0.222120228169076
1977	 0.222732868525402
1978	 0.223382519196043
1979	 0.224074118302587
1980	 0.224718794920065
1981	 0.225325591300141
1982	 0.225978981283562
1983	 0.226577401091953
1984	 0.227216644723352
1985	 0.227979385532296
1986	 0.228671053081074
1987	 0.229300552086029
1988	 0.229980867328499
1989	 0.230703272078307
1990	 0.231278968654739
1991	 0.231914685976159
1992	 0.232641830732046
1993	 0.233309898556031
1994	 0.234007369628403
1995	 0.234697820850834
1996	 0.23539518094635
1997	 0.236067547174874
1998	 0.2367443008394
1999	 0.237387882636935
2000	 0.238020113271001
2001	 0.238618760815142
2002	 0.239181479362638
2003	 0.23979557229679
2004	 0.240439807523499
2005	 0.241028828224575
2006	 0.241626665116988
2007	 0.242178435869306
2008	 0.242786234468873
2009	 0.243435148848506
2010	 0.244051925894177
2011	 0.244716002479429
2012	 0.245326318436899
2013	 0.245842708252739
2014	 0.246399378725216
2015	 0.24698104345451
2016	 0.247504050405642
2017	 0.248067306837063
2018	 0.248692265494298
2019	 0.249283198044522
2020	 0.249930160806901
2021	 0.250485867089215
2022	 0.250997862570046
2023	 0.251496136425149
2024	 0.251924677513941
2025	 0.25237657898227
2026	 0.252832748323719
2027	 0.253286185131895
2028	 0.253737801028573
2029	 0.254181100309084
2030	 0.254602234785006
2031	 0.25501582950616
2032	 0.255394490707567
2033	 0.255849493766594
2034	 0.256315142818474
2035	 0.256808944725059
2036	 0.257235209673545
2037	 0.257629276383842
2038	 0.258005013255207
2039	 0.258328284928575
2040	 0.258666508204518
2041	 0.259013219843283
2042	 0.259346319689503
2043	 0.259632271782371
2044	 0.2599693334849
2045	 0.260363100033342
2046	 0.260736272124738
2047	 0.261111899615049
2048	 0.261494861349262
2049	 0.26182040440897
2050	 0.262069309424974
2051	 0.262371841225673
2052	 0.262700127597708
2053	 0.262986711478888
2054	 0.263234325720885
2055	 0.263555428479747
2056	 0.263918207124459
2057	 0.26422596930123
2058	 0.26452699760719
2059	 0.264869439917967
2060	 0.265181435702779
2061	 0.265476233418196
2062	 0.265800472755268
2063	 0.266133461783797
2064	 0.266368619401197
2065	 0.266634489262132
2066	 0.266944686621127
2067	 0.267316695339869
2068	 0.267593253014142
2069	 0.267852196443871
2070	 0.268109685989618
2071	 0.268257235079492
2072	 0.268552685676802
2073	 0.268999413664716
2074	 0.269353791738258
2075	 0.269768518942494
2076	 0.270058836627686
2077	 0.2702937838867
2078	 0.270466033473629
2079	 0.270708230972711
2080	 0.271011852222366
2081	 0.271288957404279
2082	 0.271617121301255
2083	 0.271896658725848
2084	 0.272135024474094
2085	 0.272394897031404
2086	 0.272647069942027
2087	 0.272904117530069
2088	 0.273183401344167
2089	 0.273430033092514
2090	 0.273659036563401
2091	 0.273901558168612
2092	 0.274134086820832
2093	 0.27432642590836
2094	 0.274645440312751
2095	 0.274998527401494
2096	 0.2752706103315
2097	 0.275554901775908
2098	 0.275785996261116
2099	 0.27586417128943
2100	 0.276087819100912
2101	 0.276445878378913
2102	 0.276640091120167
2103	 0.276804730193658
2104	 0.276966777648773
2105	 0.276962228581966
2106	 0.277099352084402
2107	 0.277320802830102
2108	 0.277545593055685
2109	 0.277871533791671
2110	 0.278106568306962
2111	 0.278286451796616
2112	 0.27856447546682
2113	 0.278747294200101
2114	 0.27892438379056
2115	 0.279096865752485
2116	 0.27924142573004
2117	 0.279453072683127
2118	 0.279689743515309
2119	 0.279912555625179
2120	 0.280207354436228
2121	 0.280432941715877
2122	 0.280555810292867
2123	 0.280764919655396
2124	 0.281045320048841
2125	 0.281262901479392
2126	 0.281509067982957
2127	 0.281733193040552
2128	 0.281751333760455
2129	 0.28168876213189
2130	 0.281661697570273
2131	 0.281646496139487
2132	 0.281674753209638
2133	 0.281826859164045
2134	 0.281869098138952
2135	 0.281873040538634
2136	 0.281853621950725
2137	 0.281774568662496
2138	 0.281744134955316
2139	 0.281755595160802
2140	 0.281670766082997
2141	 0.281606459866114
2142	 0.281443268494531
2143	 0.281121613710963
2144	 0.280860220415272
2145	 0.280589795206746
2146	 0.280313424767721
2147	 0.280059437430504
2148	 0.279750745661946
2149	 0.279429502592323
2150	 0.279109165031054
2151	 0.27882877400313
2152	 0.278611668904342
2153	 0.278360214429306
2154	 0.278162584678218
2155	 0.277868920199225
2156	 0.277500566803465
2157	 0.277175857491034
2158	 0.276812435303444
2159	 0.276495402227253
2160	 0.276228535712535
2161	 0.275931780180493
2162	 0.275667241605377
2163	 0.275328888624873
2164	 0.27490239349015
2165	 0.274567288750897
2166	 0.274203292041695
2167	 0.273886568798422
2168	 0.273697085358761
2169	 0.27342914008284
2170	 0.273111729662715
2171	 0.272915058015344
2172	 0.272619926468823
2173	 0.272327499780054
2174	 0.272077973497333
2175	 0.271843052806471
2176	 0.271589649232203
2177	 0.271351272407814
2178	 0.271128827097869
2179	 0.270984323073127
2180	 0.270647049760422
2181	 0.27024070679826
2182	 0.269834979476604
2183	 0.269244849865419
2184	 0.268746531877786
2185	 0.268377266056474
2186	 0.267880305266606
2187	 0.267270040564478
2188	 0.266728842930674
2189	 0.26616709582702
2190	 0.2656359313135
2191	 0.265095211098038
2192	 0.264500087383009
2193	 0.263831319655011
2194	 0.263118634958074
2195	 0.262440778261692
2196	 0.261726860057605
2197	 0.261000941727721
2198	 0.260270188691148
2199	 0.259477430158116
2200	 0.258584623318967
2201	 0.257867708212181
2202	 0.257127898196874
2203	 0.256517720749012
2204	 0.256028395033148
2205	 0.255626330802619
2206	 0.255173634298508
2207	 0.255089499888966
2208	 0.25527103901065
2209	 0.255544842647642
2210	 0.256098949984588
2211	 0.256667626258973
2212	 0.257284977708526
2213	 0.258072698746787
2214	 0.259116335528045
2215	 0.260079093349851
2216	 0.261213845216545
2217	 0.2621859328401
2218	 0.26303289028915
2219	 0.263773289672567
2220	 0.264362832339567
2221	 0.264890387358852
2222	 0.265343752477755
2223	 0.265618587534967
2224	 0.265887631847405
2225	 0.266110224621061
2226	 0.266212710851264
2227	 0.266182003186688
2228	 0.266234231601471
2229	 0.266154311783079
2230	 0.266242337383457
2231	 0.266503841910779
2232	 0.266610161637989
2233	 0.266764313492498
2234	 0.266757245490881
2235	 0.266473407573941
2236	 0.266448269938623
2237	 0.266573169772814
2238	 0.266548011817948
2239	 0.26661000242679
2240	 0.266589522649596
2241	 0.266256217387692
2242	 0.26616538696485
2243	 0.266300112013614
2244	 0.266295836343005
2245	 0.26632211587476
2246	 0.266303203177354
2247	 0.266204361418797
2248	 0.266154335335519
2249	 0.266136412302843
2250	 0.266131685228066
2251	 0.266043122344649
2252	 0.265892567932246
2253	 0.265823693806003
2254	 0.265796780611879
2255	 0.265825064026174
2256	 0.26590599853186
2257	 0.266007192438863
2258	 0.266221088879709
2259	 0.266206389992052
2260	 0.266165166659983
2261	 0.26601349315243
2262	 0.26551227837444
2263	 0.265381351190039
2264	 0.265406357328185
2265	 0.265385708836189
2266	 0.265589912957898
2267	 0.265554699122514
2268	 0.265420222623933
2269	 0.265234787521583
2270	 0.264860917974271
2271	 0.264621411964543
2272	 0.264357810374161
2273	 0.26412337661673
2274	 0.264005498645667
2275	 0.263841348203101
2276	 0.263687122633149
2277	 0.263473900588023
2278	 0.263208657165839
2279	 0.262952804384089
2280	 0.262633322341673
2281	 0.262355991297215
2282	 0.262112862063189
2283	 0.261878605610486
2284	 0.261679200369615
2285	 0.261337971710344
2286	 0.260871993494643
2287	 0.260518557901741
2288	 0.259989696937114
2289	 0.259623959325729
2290	 0.259454997929144
2291	 0.2591391198429
2292	 0.258815088861836
2293	 0.258467282674239
2294	 0.258260069655151
2295	 0.258032722418874
2296	 0.257846712589545
2297	 0.257853605496735
2298	 0.257651238405609
2299	 0.257322954863038
2300	 0.257067570349189
2301	 0.256759216453956
2302	 0.256462410978591
2303	 0.256207398848953
2304	 0.255866901001786
2305	 0.255466207239881
2306	 0.255060176387656
2307	 0.254521968804762
2308	 0.25408756580601
2309	 0.253695883351511
2310	 0.253382074861085
2311	 0.253126671742981
2312	 0.252978453098571
2313	 0.252956381105586
2314	 0.252842514167028
2315	 0.252739482678143
2316	 0.252643827790035
2317	 0.252525734549095
2318	 0.252447718972885
2319	 0.252374313304416
2320	 0.252466676056394
2321	 0.252690120885709
2322	 0.252747775985525
2323	 0.252903563776204
2324	 0.25288712230543
2325	 0.252662063543441
2326	 0.25257131974873
2327	 0.252456136958792
2328	 0.252427645224349
2329	 0.252539209409859
2330	 0.252378841691949
2331	 0.252110117047069
2332	 0.251873598306411
2333	 0.251461596665673
2334	 0.251172198137409
2335	 0.251056488768267
2336	 0.250846967147562
2337	 0.250501931679676
2338	 0.250202809110012
2339	 0.250001073073544
2340	 0.249610439508467
2341	 0.249004431792116
2342	 0.248748504187472
2343	 0.248402056253572
2344	 0.248178549275462
2345	 0.248332492232462
2346	 0.248269524953298
2347	 0.248053619035507
2348	 0.247652736475258
2349	 0.247157538985043
2350	 0.246761796015604
2351	 0.246294775340189
2352	 0.245991032556731
2353	 0.245661838663857
2354	 0.245139973846241
2355	 0.244738327326087
2356	 0.244504977712402
2357	 0.244082817638417
2358	 0.24373758653947
2359	 0.243554111321381
2360	 0.24301711191966
2361	 0.242931444003623
2362	 0.24289593887693
2363	 0.242531188199834
2364	 0.242425013452055
2365	 0.24184763724287
2366	 0.241321861211053
2367	 0.241083408417094
2368	 0.240698773707885
2369	 0.240324276377326
2370	 0.239765209199946
2371	 0.238975972184182
2372	 0.23816229244228
2373	 0.237706479337151
2374	 0.237258004907411
2375	 0.236713150885649
2376	 0.236276801988914
2377	 0.235466220771531
2378	 0.234607339285237
2379	 0.234288759966346
2380	 0.233908743840152
2381	 0.233606753741226
2382	 0.233604954755555
2383	 0.233179005272684
2384	 0.23277777568751
2385	 0.232223174549621
2386	 0.231581030752839
2387	 0.231209743217345
2388	 0.230611514610112
2389	 0.230114493792922
2390	 0.229944437936137
2391	 0.229813708107996
2392	 0.229520305498334
2393	 0.22962417190825
2394	 0.229549090590831
2395	 0.229097995381098
2396	 0.228955490315123
2397	 0.228395116891469
2398	 0.227752985384766
2399	 0.22739417072938
2400	 0.226918617030444
2401	 0.226803576435094
2402	 0.22688990740996
2403	 0.226704481976148
2404	 0.226545838748195
2405	 0.226247334193733
2406	 0.225716033079073
2407	 0.225307131906574
2408	 0.224578822650589
2409	 0.223571171439622
2410	 0.222850743637648
2411	 0.222409079114872
2412	 0.222072528893376
2413	 0.221596987741458
2414	 0.221320470234765
2415	 0.220781725513507
2416	 0.219922451650887
2417	 0.219640931509694
2418	 0.219332244140688
2419	 0.218639224100908
2420	 0.218176412725624
2421	 0.217970738835217
2422	 0.217317540678746
2423	 0.216673852601626
2424	 0.216032542521197
2425	 0.215239391578984
2426	 0.214649232928469
2427	 0.213971210286825
2428	 0.213475507941195
2429	 0.213313540081786
2430	 0.212819262283235
2431	 0.212346861718155
2432	 0.211792810218306
2433	 0.210721109774261
2434	 0.21030841887682
2435	 0.210367402457486
2436	 0.210120108173051
2437	 0.210253098375453
2438	 0.2095236735538
2439	 0.208848564028896
2440	 0.20883138100553
2441	 0.208475315293463
2442	 0.20781679686759
2443	 0.207294811167661
2444	 0.206472663739113
2445	 0.20570900603585
2446	 0.205516532071408
2447	 0.204867989908927
2448	 0.203745017250423
2449	 0.202561153759903
2450	 0.201527537492255
2451	 0.200666831015215
2452	 0.200547912026139
2453	 0.201077454076316
2454	 0.201505471461448
2455	 0.201574093849433
2456	 0.200027840356507
2457	 0.198638802063557
2458	 0.198097540966883
2459	 0.197867799015499
2460	 0.198894742103778
2461	 0.199955734819853
2462	 0.199623229459716
2463	 0.198801867256303
2464	 0.198350321886452
2465	 0.19713328631186
2466	 0.196197457886494
2467	 0.195829064880903
2468	 0.195402046465101
2469	 0.195724917977429
2470	 0.195503991582072
2471	 0.194814490600554
2472	 0.194585107277651
2473	 0.193748363376806
2474	 0.193018656480317
2475	 0.193156865062474
2476	 0.192277703486525
2477	 0.190983228208662
2478	 0.190695583345487
2479	 0.19020400522592
2480	 0.190630155525543
2481	 0.1908719513726
2482	 0.190226171997189
2483	 0.190036531977034
2484	 0.189794492620747
2485	 0.189855274548788
2486	 0.189895294274099
2487	 0.189606999992738
2488	 0.189645637092202
2489	 0.188498471668697
2490	 0.187808070489513
2491	 0.18801847092259
2492	 0.187386247635505
2493	 0.187424316706867
2494	 0.187812216629399
2495	 0.186722111301548
2496	 0.185677650843856
2497	 0.185623214811113
2498	 0.184872308542562
2499	 0.182864035399708
2500	 0.182157338062751
