Wavelength	signature0017.asd
350	 0.129226456615125
351	 0.129963496320025
352	 0.120115655363116
353	 0.114982502812389
354	 0.127914774404683
355	 0.116905989888355
356	 0.117197514563142
357	 0.128901216018092
358	 0.125303530564833
359	 0.116722421650296
360	 0.113319499631844
361	 0.116084795825454
362	 0.114711279487722
363	 0.113345133338038
364	 0.113834863789479
365	 0.115739034423165
366	 0.114148409460907
367	 0.113731182399983
368	 0.112339897412759
369	 0.107979011036025
370	 0.10944308291642
371	 0.112118229357216
372	 0.113949536036928
373	 0.114585424668711
374	 0.110528265815302
375	 0.110155803012245
376	 0.114874886410545
377	 0.117015239701826
378	 0.112223986402135
379	 0.109105741766329
380	 0.112445148311097
381	 0.113742010499736
382	 0.115960963686275
383	 0.114545634239185
384	 0.107304346692711
385	 0.108588756711048
386	 0.113190897776908
387	 0.115640962309388
388	 0.112357429361883
389	 0.112017693104833
390	 0.110550508958637
391	 0.108177336659571
392	 0.110646520829673
393	 0.111766089447037
394	 0.111564067645425
395	 0.111086369661613
396	 0.110728209341699
397	 0.111515026544857
398	 0.112921588719077
399	 0.113787766750084
400	 0.112602155796113
401	 0.111890170531246
402	 0.111975008960343
403	 0.111724509807567
404	 0.11133075595531
405	 0.110669053550435
406	 0.11035872589318
407	 0.111880584063907
408	 0.11249635383331
409	 0.112112334187485
410	 0.111304933446135
411	 0.110562251304092
412	 0.110412573850393
413	 0.111230737103107
414	 0.112781815842474
415	 0.112497600658751
416	 0.111752605873207
417	 0.111300294944957
418	 0.111131909004354
419	 0.111197185761526
420	 0.111169936586075
421	 0.111048196713555
422	 0.111495476859933
423	 0.111207712945778
424	 0.110721083547588
425	 0.110851926886771
426	 0.111519296705641
427	 0.111254498998824
428	 0.110577527062649
429	 0.111002938471477
430	 0.111361600322916
431	 0.111401998328306
432	 0.111327652457975
433	 0.11177686322617
434	 0.112124748991834
435	 0.112380477110984
436	 0.112616912240454
437	 0.112651743597333
438	 0.112478691070312
439	 0.112371748088917
440	 0.112617791759002
441	 0.112600387117533
442	 0.113135606183701
443	 0.113918302937404
444	 0.113430232917355
445	 0.113525247408732
446	 0.113513351892692
447	 0.113056985139817
448	 0.114023967834855
449	 0.114458410822305
450	 0.114282368340655
451	 0.114219515220701
452	 0.11486984237366
453	 0.115525674661137
454	 0.115899803983364
455	 0.116167518863293
456	 0.11599958013394
457	 0.115945818164606
458	 0.116267602932634
459	 0.116332028242846
460	 0.116156018250031
461	 0.116176081240323
462	 0.116737394812862
463	 0.116952026052738
464	 0.117163282965029
465	 0.117387687513403
466	 0.117350034621199
467	 0.117160723800228
468	 0.117368718642165
469	 0.117939338471184
470	 0.117573617095995
471	 0.117739664935275
472	 0.118121300262259
473	 0.118072586711711
474	 0.118236615814322
475	 0.11832091045073
476	 0.118400693080862
477	 0.118783719680588
478	 0.118739016063634
479	 0.118580729819508
480	 0.118628948649219
481	 0.118941549666
482	 0.119164986297789
483	 0.119344233464887
484	 0.119596416545794
485	 0.119770339012183
486	 0.119733655219741
487	 0.11964401717469
488	 0.119849215396532
489	 0.120276447761517
490	 0.120624396516771
491	 0.120747528613208
492	 0.120823858765939
493	 0.120949432124233
494	 0.121186033149986
495	 0.121508828078158
496	 0.121643845319628
497	 0.121719284051047
498	 0.121807056421807
499	 0.121920252093729
500	 0.122045834074813
501	 0.122260908910946
502	 0.122565515266724
503	 0.122794275109168
504	 0.123042193040333
505	 0.123368601593091
506	 0.12373731746241
507	 0.123716112051657
508	 0.12383338051661
509	 0.124154979807972
510	 0.124341008420974
511	 0.124392562294335
512	 0.124620466583534
513	 0.125051550336194
514	 0.124982121483692
515	 0.125307570452888
516	 0.125676877452551
517	 0.125587133404516
518	 0.126200220391673
519	 0.126407987977938
520	 0.126217135563747
521	 0.126698765646001
522	 0.126897482598026
523	 0.127147504152642
524	 0.127663386700931
525	 0.127852722933878
526	 0.127931648878526
527	 0.128188286423943
528	 0.128803804012909
529	 0.129113883195901
530	 0.129444293820148
531	 0.129845926709131
532	 0.130021929773763
533	 0.130554408968391
534	 0.131040878907256
535	 0.131215582572995
536	 0.13173798095256
537	 0.132253852517007
538	 0.132694274357996
539	 0.133146238571815
540	 0.133804165373829
541	 0.134286064127324
542	 0.134651112590731
543	 0.135554731671868
544	 0.136278990610626
545	 0.137002167431845
546	 0.137941200853502
547	 0.138728694088517
548	 0.139494994645696
549	 0.140276056698032
550	 0.141070096082836
551	 0.142070905214099
552	 0.143112348721644
553	 0.14409592632616
554	 0.145093609884745
555	 0.146168315307964
556	 0.147342383671227
557	 0.148606742966379
558	 0.149893923171076
559	 0.151228093388773
560	 0.152589816389214
561	 0.153932895921453
562	 0.155324847157661
563	 0.156748539471589
564	 0.158218808105979
565	 0.159850033670785
566	 0.161451669676962
567	 0.163067609022299
568	 0.164772136103298
569	 0.16633607648261
570	 0.167829106156521
571	 0.169356338174746
572	 0.171036021939756
573	 0.172830168347421
574	 0.174644993213886
575	 0.176428304941834
576	 0.17823933196474
577	 0.180049597301348
578	 0.181911908770292
579	 0.183871033757958
580	 0.185692646497841
581	 0.187662876022487
582	 0.189813630751568
583	 0.191822154971335
584	 0.193664437826779
585	 0.195533224456191
586	 0.197506994461833
587	 0.199133740019306
588	 0.200951584070778
589	 0.202888326433409
590	 0.20456296819616
591	 0.206186370832503
592	 0.207796579210335
593	 0.209350603459534
594	 0.21069291945548
595	 0.212179177617891
596	 0.213659183743054
597	 0.214917536907158
598	 0.21611219217659
599	 0.217321804296573
600	 0.218549637102253
601	 0.219734263097061
602	 0.220869202641988
603	 0.222003587586237
604	 0.223143331758105
605	 0.224185095894753
606	 0.225189824323698
607	 0.226208859751858
608	 0.227229458533821
609	 0.227972255656089
610	 0.228629799907214
611	 0.229404023777574
612	 0.230438064064652
613	 0.231160528457188
614	 0.231781940569809
615	 0.232509266826717
616	 0.233190147661724
617	 0.233773904576845
618	 0.234369305556433
619	 0.235096402838257
620	 0.235667020312172
621	 0.236159330362633
622	 0.236697888230258
623	 0.23741771185223
624	 0.238068694725433
625	 0.238580542073024
626	 0.2390076982046
627	 0.239630691253582
628	 0.240220224758447
629	 0.240730004734079
630	 0.241220463724878
631	 0.241785305402736
632	 0.24233024684899
633	 0.24280588360019
634	 0.243247391319344
635	 0.243786690804687
636	 0.2443656663613
637	 0.244916508720423
638	 0.245529798965184
639	 0.246118468997557
640	 0.24670280840228
641	 0.247357065987577
642	 0.247999985202573
643	 0.248577025252017
644	 0.249085139937281
645	 0.249593818987038
646	 0.250121311757616
647	 0.250648420133541
648	 0.25115936271057
649	 0.25171495318408
650	 0.252267031375455
651	 0.252798052623395
652	 0.253318822835857
653	 0.253841395262306
654	 0.254385892544875
655	 0.254941008578116
656	 0.25542983628613
657	 0.25596233667653
658	 0.256558745687229
659	 0.257182162433766
660	 0.257690536945722
661	 0.258264011475184
662	 0.258900572410084
663	 0.259444297036912
664	 0.260054640410934
665	 0.260688115699677
666	 0.261321770733084
667	 0.262054895699932
668	 0.262832691607268
669	 0.263533885556579
670	 0.264073220510768
671	 0.264674219544533
672	 0.265347714795667
673	 0.266051118248715
674	 0.266708839557645
675	 0.267378923436376
676	 0.268068013581353
677	 0.268763606905791
678	 0.269432707093728
679	 0.270035654618282
680	 0.270667357361032
681	 0.271436309158307
682	 0.272188875091374
683	 0.272925090201636
684	 0.273663104559387
685	 0.274429487786608
686	 0.275262099035338
687	 0.276113340718001
688	 0.276940446523984
689	 0.277752818654905
690	 0.278580833405039
691	 0.279451993031931
692	 0.280376292502169
693	 0.281281448453635
694	 0.28217634562992
695	 0.283035889402757
696	 0.283800823103051
697	 0.284597203627666
698	 0.285424553870765
699	 0.28624214621662
700	 0.286981109218894
701	 0.287697970258174
702	 0.288444205752426
703	 0.289245927831514
704	 0.290001357247344
705	 0.290709387874264
706	 0.291411112078768
707	 0.292176002119889
708	 0.292910362629034
709	 0.293570042913418
710	 0.294177729187935
711	 0.294895272048345
712	 0.295543343075283
713	 0.296122038651298
714	 0.296707829942507
715	 0.297352993436827
716	 0.298043549862252
717	 0.298716072801218
718	 0.29927946753181
719	 0.29991950059001
720	 0.300507692968518
721	 0.300979382272487
722	 0.301542627027673
723	 0.302070694008813
724	 0.302586248848596
725	 0.303145698323385
726	 0.303710745668989
727	 0.304198977210033
728	 0.304635657082124
729	 0.305133072887447
730	 0.305613752542398
731	 0.306084969408281
732	 0.306520881397005
733	 0.306791498338258
734	 0.307224352555539
735	 0.307701189683389
736	 0.308021724303425
737	 0.308323371967724
738	 0.30863428908634
739	 0.308948122532388
740	 0.309240570808636
741	 0.309588459607091
742	 0.309927610091359
743	 0.310212172292491
744	 0.310455254608293
745	 0.310709504104713
746	 0.310948461373326
747	 0.311157866686547
748	 0.31145624689412
749	 0.311690377202943
750	 0.311826460333546
751	 0.311925538080547
752	 0.312171534542733
753	 0.31234534441483
754	 0.312399376058568
755	 0.312538091847384
756	 0.312730853448024
757	 0.312880854239853
758	 0.31292531765546
759	 0.312920607865184
760	 0.312953713728559
761	 0.313044945849303
762	 0.313158931726836
763	 0.313163006358455
764	 0.313176568603762
765	 0.313197406410342
766	 0.313118719395062
767	 0.313084872692156
768	 0.313023163795028
769	 0.312924612837349
770	 0.312952491020891
771	 0.312951402329664
772	 0.312901729724447
773	 0.312827479743243
774	 0.312751940883586
775	 0.312674298567234
776	 0.312589262832373
777	 0.312493073286719
778	 0.312418153748755
779	 0.312306432088356
780	 0.312159864247987
781	 0.312053263154108
782	 0.311916625141636
783	 0.31177949799917
784	 0.311666163255976
785	 0.311553010036154
786	 0.31133115284847
787	 0.311126822953176
788	 0.311071912206492
789	 0.310949800822432
790	 0.310758152654763
791	 0.310563119845759
792	 0.310448323838392
793	 0.310257762614682
794	 0.31001632907485
795	 0.309768764789742
796	 0.30955507999995
797	 0.309413659912195
798	 0.309225911796227
799	 0.30894972664161
800	 0.308821912330706
801	 0.30856637948205
802	 0.308271504155324
803	 0.308095453848522
804	 0.307881314897796
805	 0.307695113820405
806	 0.307509620921551
807	 0.307248703342351
808	 0.307000038231898
809	 0.306770176766156
810	 0.306516836803928
811	 0.306165957506837
812	 0.306074726310604
813	 0.305954076557134
814	 0.305622634648405
815	 0.305413988546088
816	 0.305236305462417
817	 0.305060965718753
818	 0.304868607042036
819	 0.304619063417346
820	 0.304418365330341
821	 0.304241429231926
822	 0.304006666759111
823	 0.303793834639938
824	 0.303613562561906
825	 0.3034489179534
826	 0.303262490646232
827	 0.303047456381813
828	 0.302833795609201
829	 0.302648905609935
830	 0.30250446175569
831	 0.302342977931173
832	 0.302102619685938
833	 0.30178961322506
834	 0.301574961691947
835	 0.301445143799824
836	 0.301324616215799
837	 0.301148206598585
838	 0.301034884735984
839	 0.300865132486571
840	 0.300628808436056
841	 0.300405115998728
842	 0.300333226267759
843	 0.30023744385994
844	 0.300066375729481
845	 0.299921839425187
846	 0.299795962905838
847	 0.299684690393365
848	 0.299564414729144
849	 0.299387185274918
850	 0.29930116001637
851	 0.299202528252969
852	 0.29904859035512
853	 0.299106821862759
854	 0.299015686761933
855	 0.298869684247728
856	 0.298835782402763
857	 0.298735978189948
858	 0.298707681651393
859	 0.298661022591943
860	 0.298470067242444
861	 0.298448446784729
862	 0.298561065546862
863	 0.298616684000302
864	 0.298411748315297
865	 0.298466477602319
866	 0.298473889450511
867	 0.298352432585819
868	 0.298347064845345
869	 0.298368287967477
870	 0.298393147465974
871	 0.298441952627013
872	 0.298581267407788
873	 0.298578433196165
874	 0.298530215774754
875	 0.29853823572097
876	 0.298541144511672
877	 0.298520996829101
878	 0.298562720702024
879	 0.298721907081239
880	 0.298886914722026
881	 0.298964593000414
882	 0.298976379775052
883	 0.299011471125123
884	 0.299203959128067
885	 0.299361848784427
886	 0.29938167790112
887	 0.299302590079113
888	 0.299574390889995
889	 0.299713479075287
890	 0.299698788130551
891	 0.299836065421706
892	 0.300022232594532
893	 0.300175853241435
894	 0.300306849493356
895	 0.300501579151001
896	 0.300747165333114
897	 0.300964136594055
898	 0.301137976314945
899	 0.301335284608696
900	 0.301556731717557
901	 0.301794363470345
902	 0.302013800998117
903	 0.302161206724885
904	 0.30243680405866
905	 0.302757633890987
906	 0.303010022502965
907	 0.303140381029227
908	 0.303425522691831
909	 0.30374957309302
910	 0.303991477585868
911	 0.304218306313386
912	 0.304590415871266
913	 0.30492719172991
914	 0.305067969950149
915	 0.305112895137991
916	 0.30547255976444
917	 0.3059677082812
918	 0.306337041884057
919	 0.306659812248069
920	 0.307031346046554
921	 0.30736769139323
922	 0.307618656199855
923	 0.308051979413446
924	 0.30843514471732
925	 0.308762149797297
926	 0.309124578893579
927	 0.309643324486733
928	 0.310040412510312
929	 0.310342141413302
930	 0.310684606386003
931	 0.311072568958333
932	 0.311442676322046
933	 0.311890526187161
934	 0.312465784337577
935	 0.312761763726539
936	 0.313125628548731
937	 0.313457267528092
938	 0.313595885176866
939	 0.314044813699152
940	 0.314511453937395
941	 0.314928792884425
942	 0.315383774603015
943	 0.316096298783204
944	 0.316522507231014
945	 0.316864178118011
946	 0.317476017218807
947	 0.317672523438053
948	 0.318111299626957
949	 0.318600748562807
950	 0.318805874910628
951	 0.319621847111777
952	 0.320485026625165
953	 0.321018872245899
954	 0.321155619658007
955	 0.321475711695466
956	 0.322143860478096
957	 0.322708864269265
958	 0.322849942998345
959	 0.323784300604977
960	 0.324324023956934
961	 0.324756337757071
962	 0.325609862242306
963	 0.326020477797965
964	 0.326318731128429
965	 0.326941646993201
966	 0.327931491542286
967	 0.328010539135663
968	 0.328584679733977
969	 0.329278685442517
970	 0.329595743561761
971	 0.330375450480683
972	 0.330934299566042
973	 0.331551627844723
974	 0.332455451159486
975	 0.333122940437278
976	 0.333676014967773
977	 0.334407848459372
978	 0.33525463531652
979	 0.335460540677336
980	 0.33582887625325
981	 0.336185541989559
982	 0.336643293538014
983	 0.33796958269055
984	 0.338786404190627
985	 0.339343427793009
986	 0.339825749694546
987	 0.340030720071002
988	 0.341157315353078
989	 0.341848484892114
990	 0.341957297526189
991	 0.342726650331513
992	 0.343095733929533
993	 0.343674787404847
994	 0.344358896703122
995	 0.344633295027883
996	 0.34583356901181
997	 0.346639696755175
998	 0.347111767622846
999	 0.347981112073878
1000	 0.348502276209203
1001	 0.335040952325883
1002	 0.33560318371138
1003	 0.336158266881572
1004	 0.336511446952955
1005	 0.336896616916623
1006	 0.337513027864639
1007	 0.338195132304033
1008	 0.338731493739262
1009	 0.339289652590679
1010	 0.339885630021808
1011	 0.340519240009669
1012	 0.340975847805431
1013	 0.341571545826421
1014	 0.342356937563571
1015	 0.342835875694571
1016	 0.343182817062536
1017	 0.343681763886629
1018	 0.34413377870057
1019	 0.344612766027663
1020	 0.345237394651745
1021	 0.345841430918726
1022	 0.346448070719214
1023	 0.3470078538532
1024	 0.3475037962435
1025	 0.347963840146606
1026	 0.348441293318984
1027	 0.348928902271333
1028	 0.349394512463165
1029	 0.349835576580931
1030	 0.35032881424298
1031	 0.350757892741797
1032	 0.351197682229449
1033	 0.351736874722181
1034	 0.352252098848631
1035	 0.352768961573251
1036	 0.353253029771878
1037	 0.353786084707137
1038	 0.354278638650312
1039	 0.354772635268702
1040	 0.355131355012285
1041	 0.355597963222457
1042	 0.356097614104825
1043	 0.356565205968484
1044	 0.357196230263169
1045	 0.357758301460165
1046	 0.358222057497688
1047	 0.358731080790993
1048	 0.359242501997961
1049	 0.359785674998226
1050	 0.360278694748264
1051	 0.36086385901679
1052	 0.361379279183572
1053	 0.361838491039008
1054	 0.36220388512292
1055	 0.362711888934142
1056	 0.363171041300951
1057	 0.363670721246929
1058	 0.364296889926897
1059	 0.364961554648369
1060	 0.365611711040016
1061	 0.366232012118782
1062	 0.366780752783146
1063	 0.367166994202066
1064	 0.367579167060663
1065	 0.368093217003341
1066	 0.368633171434058
1067	 0.369287965256011
1068	 0.369869515468246
1069	 0.370384893638689
1070	 0.370923248244085
1071	 0.371452105196767
1072	 0.372021036747088
1073	 0.372549812164477
1074	 0.373152472070756
1075	 0.373644736118281
1076	 0.374040176164446
1077	 0.374611287957024
1078	 0.375203834324995
1079	 0.375857106320974
1080	 0.376633694935754
1081	 0.377210124092551
1082	 0.377747762058666
1083	 0.378296982303082
1084	 0.378789731233069
1085	 0.379256568373808
1086	 0.379708318424596
1087	 0.38021176036112
1088	 0.380687185252571
1089	 0.381223163531666
1090	 0.38182309332031
1091	 0.382302561689035
1092	 0.382747373975074
1093	 0.383204610397734
1094	 0.383693620185413
1095	 0.384266702926348
1096	 0.384821076467988
1097	 0.385401838304335
1098	 0.385921893785783
1099	 0.386343737540548
1100	 0.386860839177255
1101	 0.387394336079892
1102	 0.387923598126006
1103	 0.388494535065852
1104	 0.389073807085729
1105	 0.38959425043819
1106	 0.390133248487201
1107	 0.390573067956568
1108	 0.391045599540888
1109	 0.391590526243393
1110	 0.392097126464534
1111	 0.392713598105783
1112	 0.393307066650055
1113	 0.393852694793102
1114	 0.394369920686981
1115	 0.394891205894049
1116	 0.395407792658272
1117	 0.395870850767626
1118	 0.396232622190992
1119	 0.396732381757231
1120	 0.397187795428492
1121	 0.397790045800592
1122	 0.398772397275888
1123	 0.399419750985685
1124	 0.399940752119166
1125	 0.40053688330384
1126	 0.400791822210501
1127	 0.401197704699798
1128	 0.401812050564568
1129	 0.402291753397804
1130	 0.402793656403958
1131	 0.403310257485811
1132	 0.403853258404245
1133	 0.404395583439013
1134	 0.404936803182676
1135	 0.405500674490363
1136	 0.406046644624139
1137	 0.406567004117474
1138	 0.407086522946859
1139	 0.407612218397104
1140	 0.408179253341874
1141	 0.408639578035241
1142	 0.409110727679417
1143	 0.40966592800259
1144	 0.410220817620859
1145	 0.410713720239543
1146	 0.41119751531486
1147	 0.411728035854074
1148	 0.412212650842741
1149	 0.412704741440317
1150	 0.41327413319536
1151	 0.413815034361322
1152	 0.414304735642676
1153	 0.414800091848269
1154	 0.415325876474265
1155	 0.415829561802183
1156	 0.416269519587979
1157	 0.416772482639346
1158	 0.417278577324517
1159	 0.417792046801971
1160	 0.418338223318083
1161	 0.418898114405203
1162	 0.419446459020968
1163	 0.420016172096278
1164	 0.420564478157264
1165	 0.421071448398306
1166	 0.421639588043499
1167	 0.422258484750332
1168	 0.422849465542322
1169	 0.423459484890916
1170	 0.424046342227635
1171	 0.424597072256308
1172	 0.425163660123178
1173	 0.425753807747999
1174	 0.426314165948008
1175	 0.426863134285416
1176	 0.427417681675505
1177	 0.427904627640253
1178	 0.428402199537247
1179	 0.428893006166398
1180	 0.429386440331046
1181	 0.42992505809989
1182	 0.430517012755878
1183	 0.431070505351145
1184	 0.43165180407083
1185	 0.432178792323583
1186	 0.432659054236363
1187	 0.433166100202829
1188	 0.43366458094604
1189	 0.434162433298548
1190	 0.434681863366965
1191	 0.43517204157643
1192	 0.435635777330521
1193	 0.436103545025138
1194	 0.436560093320669
1195	 0.437015723016428
1196	 0.437499757533628
1197	 0.437961113451328
1198	 0.438427188881677
1199	 0.438895545502701
1200	 0.439378425443312
1201	 0.439858618018667
1202	 0.440348808701629
1203	 0.440878120875236
1204	 0.441358920357495
1205	 0.441805510066046
1206	 0.442270298603429
1207	 0.442741767084306
1208	 0.443189130059096
1209	 0.443630948688976
1210	 0.444071637888835
1211	 0.44447901685889
1212	 0.444896934532778
1213	 0.445301767926576
1214	 0.445766465199076
1215	 0.446173826116598
1216	 0.446592945469334
1217	 0.446991929565062
1218	 0.447363166155355
1219	 0.44776995171018
1220	 0.448205211116707
1221	 0.448584066041986
1222	 0.448939515974942
1223	 0.449325965052886
1224	 0.44969308880128
1225	 0.450062945177297
1226	 0.450460414490199
1227	 0.450856508270667
1228	 0.451229855036632
1229	 0.451610337529196
1230	 0.452019532481639
1231	 0.452416721798724
1232	 0.452802245649034
1233	 0.45318086339422
1234	 0.453529863138667
1235	 0.453935097563895
1236	 0.454324422757607
1237	 0.454701213693333
1238	 0.455099207822933
1239	 0.455547359455486
1240	 0.455913180692061
1241	 0.456236034890701
1242	 0.456586284663197
1243	 0.456902860589787
1244	 0.45724099543533
1245	 0.457623590251035
1246	 0.457962274545845
1247	 0.458255024433884
1248	 0.458584711521094
1249	 0.458919615881895
1250	 0.459256029103155
1251	 0.459610774458281
1252	 0.459963495365379
1253	 0.46032330035394
1254	 0.460666815044271
1255	 0.46100463829942
1256	 0.461344968293911
1257	 0.461676277846774
1258	 0.461979990426999
1259	 0.462323058632864
1260	 0.462697560992037
1261	 0.463029022095033
1262	 0.463373015331559
1263	 0.463673219594944
1264	 0.463917429097156
1265	 0.464194828424772
1266	 0.464460331655813
1267	 0.464743007001647
1268	 0.465049124792452
1269	 0.465338424205378
1270	 0.465631374697935
1271	 0.46591251732084
1272	 0.466198866679835
1273	 0.466453948981527
1274	 0.466676900328383
1275	 0.466910552620781
1276	 0.467110247772658
1277	 0.467336421714231
1278	 0.467576700917823
1279	 0.467852098273524
1280	 0.468073838367236
1281	 0.468303273961684
1282	 0.468479497804361
1283	 0.468584927044433
1284	 0.468754382123959
1285	 0.468931657777755
1286	 0.469095302516255
1287	 0.469288754512721
1288	 0.469452311163458
1289	 0.469561533528224
1290	 0.469723803480275
1291	 0.469933653946614
1292	 0.470094947484524
1293	 0.470245648952888
1294	 0.470402573556527
1295	 0.470519529641489
1296	 0.47066776430125
1297	 0.470863834624534
1298	 0.471031598702763
1299	 0.471221665477283
1300	 0.471361308837619
1301	 0.471455147350547
1302	 0.471512363118224
1303	 0.47155480974858
1304	 0.47152589290948
1305	 0.471563430131139
1306	 0.471623225472851
1307	 0.471658512018411
1308	 0.471690984486841
1309	 0.47174115561646
1310	 0.471777659306784
1311	 0.47183897571603
1312	 0.47194381312559
1313	 0.472019747663788
1314	 0.472099418825466
1315	 0.472149605288186
1316	 0.472196018974339
1317	 0.472209451144204
1318	 0.472186893032556
1319	 0.472160446651608
1320	 0.472087685449772
1321	 0.472050411224269
1322	 0.471992534132952
1323	 0.471984926322171
1324	 0.472039445346648
1325	 0.472091367614521
1326	 0.472096822788252
1327	 0.472115434032599
1328	 0.472108830613614
1329	 0.472052700863074
1330	 0.472014898588688
1331	 0.471998337365051
1332	 0.47195397009831
1333	 0.471870517739805
1334	 0.471824429836377
1335	 0.471792775236812
1336	 0.471752192546845
1337	 0.47172572885174
1338	 0.471679160964316
1339	 0.471617583977189
1340	 0.471562702022594
1341	 0.471504983865088
1342	 0.471447095308889
1343	 0.471396149247943
1344	 0.471329751444324
1345	 0.471299152054172
1346	 0.471184441294601
1347	 0.471018245944135
1348	 0.4708419806828
1349	 0.470590264692223
1350	 0.470359785955937
1351	 0.470141183151012
1352	 0.46990026147158
1353	 0.469716892718654
1354	 0.469497681909243
1355	 0.469248839163744
1356	 0.469013254952248
1357	 0.468730995624671
1358	 0.468304225139054
1359	 0.468098595257449
1360	 0.46800332898765
1361	 0.467839721973374
1362	 0.467861164788187
1363	 0.467642421178895
1364	 0.467265054990019
1365	 0.466887396352239
1366	 0.466393738006473
1367	 0.465943212913159
1368	 0.465534050467219
1369	 0.46503259256423
1370	 0.464545687466992
1371	 0.463935994484837
1372	 0.463281839136764
1373	 0.462471770327108
1374	 0.461590423792754
1375	 0.460539727727327
1376	 0.459304420874118
1377	 0.457980420818795
1378	 0.456539847360612
1379	 0.455031111060832
1380	 0.453525869608366
1381	 0.45198577553248
1382	 0.450432494176778
1383	 0.448893004541857
1384	 0.447353780034365
1385	 0.445768121245322
1386	 0.444311864405601
1387	 0.442861753441736
1388	 0.441581389449737
1389	 0.44042441062295
1390	 0.439309903647488
1391	 0.438292133368516
1392	 0.437319444406041
1393	 0.436434396419438
1394	 0.435517729852135
1395	 0.434710050923516
1396	 0.433752825363897
1397	 0.432792038971752
1398	 0.431663796926555
1399	 0.430422265224897
1400	 0.429098581499555
1401	 0.427672463422765
1402	 0.426132251996892
1403	 0.424469171062171
1404	 0.422764936137362
1405	 0.420877662625273
1406	 0.419063107424046
1407	 0.417196853100693
1408	 0.415394582324754
1409	 0.413657066960101
1410	 0.412110485387382
1411	 0.410773764427669
1412	 0.409739293658729
1413	 0.409120045506266
1414	 0.408769148660627
1415	 0.408845000111871
1416	 0.409188363401004
1417	 0.409656832916226
1418	 0.410444953515749
1419	 0.411154033866279
1420	 0.412035426619219
1421	 0.412773610866926
1422	 0.413518482824628
1423	 0.414197296488717
1424	 0.414836507701504
1425	 0.415405740718494
1426	 0.415931599871011
1427	 0.416408232556885
1428	 0.41674816815697
1429	 0.41719237504592
1430	 0.417647847067475
1431	 0.418122451705346
1432	 0.418690323852876
1433	 0.41916447087945
1434	 0.419584264331572
1435	 0.420010263208554
1436	 0.420372035061361
1437	 0.420790116782423
1438	 0.421265950411457
1439	 0.421695602079758
1440	 0.422121519799779
1441	 0.422538369602453
1442	 0.422930398839685
1443	 0.423318109053507
1444	 0.423714607321529
1445	 0.424100153948779
1446	 0.424408971368337
1447	 0.424713361672388
1448	 0.425004697519638
1449	 0.425259315244304
1450	 0.425561399376868
1451	 0.425865619309395
1452	 0.42615032022484
1453	 0.426446310978642
1454	 0.42671088899322
1455	 0.426936923695401
1456	 0.427154217606917
1457	 0.427346914905738
1458	 0.427532118964934
1459	 0.427691679728957
1460	 0.427872954729444
1461	 0.428041107417406
1462	 0.428239835884735
1463	 0.428447337834209
1464	 0.428695049067805
1465	 0.428975188998591
1466	 0.429255602861028
1467	 0.429546236205921
1468	 0.429871634210363
1469	 0.430213665020028
1470	 0.430582304327165
1471	 0.430994231274559
1472	 0.431415637322156
1473	 0.431840378862262
1474	 0.432294188464766
1475	 0.432793651924005
1476	 0.433282106786637
1477	 0.433793397879462
1478	 0.434289600796083
1479	 0.43476473851235
1480	 0.435259509450047
1481	 0.435762186968753
1482	 0.436266625117488
1483	 0.436801142285883
1484	 0.437311855994037
1485	 0.437828065602897
1486	 0.438302152234558
1487	 0.438725022755842
1488	 0.439170399879581
1489	 0.439588678972806
1490	 0.44002660792037
1491	 0.440488118714142
1492	 0.440953420081729
1493	 0.441409777136913
1494	 0.441868815054848
1495	 0.442301777403593
1496	 0.442740759605943
1497	 0.44317396044348
1498	 0.443563511643755
1499	 0.443945209293617
1500	 0.44429140051095
1501	 0.444631452533685
1502	 0.44501522668278
1503	 0.445387957365005
1504	 0.44576441092044
1505	 0.446131247378854
1506	 0.446476824632651
1507	 0.44682757517022
1508	 0.447178715774128
1509	 0.44753011678123
1510	 0.447886552875727
1511	 0.448201857506474
1512	 0.448501150959077
1513	 0.448818307842606
1514	 0.449100802994323
1515	 0.449423172219278
1516	 0.449798029798291
1517	 0.450108514438646
1518	 0.450402758383542
1519	 0.450684295872126
1520	 0.450912337988936
1521	 0.451196698255689
1522	 0.451512062912484
1523	 0.451793176739895
1524	 0.452103509073418
1525	 0.452364161748624
1526	 0.452577029873125
1527	 0.452795787513431
1528	 0.452979492701531
1529	 0.453192319279598
1530	 0.453410406841071
1531	 0.453632888957302
1532	 0.453882050192061
1533	 0.454115578883512
1534	 0.454360120285027
1535	 0.454554943831007
1536	 0.454724542830049
1537	 0.454884652628335
1538	 0.454992072485644
1539	 0.455130542013651
1540	 0.455273337968662
1541	 0.455426701369899
1542	 0.455601100338669
1543	 0.455758990732603
1544	 0.455925320854132
1545	 0.456072321737329
1546	 0.45618035663867
1547	 0.456319188624978
1548	 0.456471035634419
1549	 0.456618614809926
1550	 0.456791779359893
1551	 0.456949201345368
1552	 0.457087937768603
1553	 0.457228521808651
1554	 0.457356799268077
1555	 0.457493687871111
1556	 0.45763624544113
1557	 0.457781410072328
1558	 0.457946563106672
1559	 0.458092663101983
1560	 0.458202477294957
1561	 0.458352798536742
1562	 0.458536610171024
1563	 0.45868476206421
1564	 0.45886722228342
1565	 0.458998161702654
1566	 0.459031854468576
1567	 0.459132306796772
1568	 0.459270779360392
1569	 0.459375459267293
1570	 0.459486930995419
1571	 0.459603430339604
1572	 0.459699251098252
1573	 0.459785691935805
1574	 0.459878949626156
1575	 0.45997640095347
1576	 0.460060216881678
1577	 0.460152238815542
1578	 0.460286918701387
1579	 0.460427420259695
1580	 0.460536336327591
1581	 0.460641261717479
1582	 0.460746136805538
1583	 0.460841293562856
1584	 0.460916905654612
1585	 0.461019155545233
1586	 0.461127874683256
1587	 0.461233169446426
1588	 0.46139037784312
1589	 0.46149264348177
1590	 0.461538322986703
1591	 0.461634375486156
1592	 0.461716337076676
1593	 0.461801610483331
1594	 0.461906796846948
1595	 0.461962099400366
1596	 0.462032601151597
1597	 0.462121102959049
1598	 0.462239638146433
1599	 0.462381370001231
1600	 0.462478983112193
1601	 0.462579170474987
1602	 0.462642246803466
1603	 0.462682978138598
1604	 0.462730017976872
1605	 0.462779139086968
1606	 0.462847217795
1607	 0.462908849721178
1608	 0.463093488804283
1609	 0.463268795108137
1610	 0.463416677171014
1611	 0.463669300897713
1612	 0.46373789407325
1613	 0.463759115598844
1614	 0.46388549519957
1615	 0.463896954566358
1616	 0.463894856996316
1617	 0.463994984668534
1618	 0.464084080636067
1619	 0.464162082761582
1620	 0.464215408110259
1621	 0.464302705932874
1622	 0.464385496500774
1623	 0.464398549472049
1624	 0.464525649484777
1625	 0.464773379882404
1626	 0.46484504926321
1627	 0.464868113633049
1628	 0.464861486670916
1629	 0.464868160879459
1630	 0.464964147467912
1631	 0.465099287581946
1632	 0.465224681409073
1633	 0.465274756185039
1634	 0.465253710764558
1635	 0.465291293596768
1636	 0.465309521270896
1637	 0.465344234169385
1638	 0.465458715815873
1639	 0.465537970703678
1640	 0.465675250975677
1641	 0.465780865883066
1642	 0.465882701209731
1643	 0.465968862943714
1644	 0.466014406993444
1645	 0.466071598872405
1646	 0.466121622257567
1647	 0.466182732873385
1648	 0.466248151549049
1649	 0.466322804968404
1650	 0.466437224838129
1651	 0.466509065066604
1652	 0.466550631666985
1653	 0.466605997738247
1654	 0.46664465312822
1655	 0.466676716845127
1656	 0.466711130233391
1657	 0.466755453742979
1658	 0.466775396004877
1659	 0.466824169347363
1660	 0.46694332681254
1661	 0.466998271089143
1662	 0.467021081054799
1663	 0.46704828463732
1664	 0.467046256589308
1665	 0.467033595382936
1666	 0.467005624931847
1667	 0.467001004098989
1668	 0.466974135749077
1669	 0.466974955524814
1670	 0.467039234958984
1671	 0.467064622153395
1672	 0.467080198529103
1673	 0.467085322293653
1674	 0.467059771223585
1675	 0.467048867750918
1676	 0.467041703556941
1677	 0.467028726725462
1678	 0.467025348992343
1679	 0.467009056526726
1680	 0.466977504912145
1681	 0.466950865978461
1682	 0.466913354247714
1683	 0.466889290632786
1684	 0.466871529228709
1685	 0.466857803298423
1686	 0.466847819641546
1687	 0.466847745580672
1688	 0.466868350156753
1689	 0.466868249707797
1690	 0.466876328525669
1691	 0.466864316873814
1692	 0.466802681778684
1693	 0.466787827541464
1694	 0.466805564143035
1695	 0.466789270138473
1696	 0.466786984685778
1697	 0.466765315548367
1698	 0.466685038990977
1699	 0.466668279767661
1700	 0.466714021495227
1701	 0.466682183436515
1702	 0.466614527865156
1703	 0.46659565899272
1704	 0.466556618949424
1705	 0.466528141590141
1706	 0.4665832408168
1707	 0.466529480200402
1708	 0.466371872540319
1709	 0.466307656691484
1710	 0.466265343283026
1711	 0.466181565446143
1712	 0.466138538847681
1713	 0.466031410523558
1714	 0.465837797465366
1715	 0.46570927166213
1716	 0.465600536160239
1717	 0.465462253563793
1718	 0.465326548055179
1719	 0.46517085867398
1720	 0.465024804009339
1721	 0.464910846906109
1722	 0.46477555326797
1723	 0.464701656143432
1724	 0.464591470327038
1725	 0.464385175648617
1726	 0.464248649278321
1727	 0.464079291546699
1728	 0.463894580743788
1729	 0.463780358801644
1730	 0.463635914490562
1731	 0.463488573780612
1732	 0.463313422388727
1733	 0.463078508973868
1734	 0.462824975922909
1735	 0.462556288692613
1736	 0.462359901706818
1737	 0.462381158805505
1738	 0.462200087237236
1739	 0.461840230621261
1740	 0.461612055693467
1741	 0.461297506021232
1742	 0.461048001267354
1743	 0.460981253067569
1744	 0.460839154128155
1745	 0.460660783661682
1746	 0.460480236865314
1747	 0.460310943144001
1748	 0.460097954072136
1749	 0.45983962976929
1750	 0.459600546234247
1751	 0.459321948086695
1752	 0.459100786228598
1753	 0.45889295951489
1754	 0.458721417477044
1755	 0.458634057523231
1756	 0.458463442751202
1757	 0.458272393651016
1758	 0.458100618430673
1759	 0.45789019931463
1760	 0.45769252863719
1761	 0.457526399196887
1762	 0.457274499443631
1763	 0.457058466843231
1764	 0.456882838490971
1765	 0.456695763518771
1766	 0.456570794515824
1767	 0.456390186585383
1768	 0.456171210680879
1769	 0.455963311128273
1770	 0.455730779636672
1771	 0.455538892176418
1772	 0.455416903386378
1773	 0.455303276537891
1774	 0.455168267672755
1775	 0.45503928248268
1776	 0.454898220325542
1777	 0.454762236520108
1778	 0.454629229850481
1779	 0.454518236226246
1780	 0.454437010556281
1781	 0.454333157138451
1782	 0.454253261461873
1783	 0.454155013348216
1784	 0.454031389362792
1785	 0.453938972691251
1786	 0.453846503736659
1787	 0.453756709651554
1788	 0.453665321211658
1789	 0.453591684177299
1790	 0.453535809850328
1791	 0.453487976948351
1792	 0.453484800105536
1793	 0.453434317225518
1794	 0.45335367404845
1795	 0.453363888369092
1796	 0.453320374911323
1797	 0.453326173034879
1798	 0.453351599473543
1799	 0.453225458508578
1800	 0.453130930509432
1801	 0.453044526836076
1802	 0.453000402333699
1803	 0.453056412422708
1804	 0.453016427114782
1805	 0.452948402187617
1806	 0.452892205997926
1807	 0.452812161813523
1808	 0.452804817787506
1809	 0.452817451102079
1810	 0.452798288488629
1811	 0.452790754655018
1812	 0.452800720689055
1813	 0.452787406045124
1814	 0.452725991294627
1815	 0.452560355320597
1816	 0.452436590994224
1817	 0.452342428996825
1818	 0.452033844330182
1819	 0.452054545027951
1820	 0.452475457281401
1821	 0.452507909720928
1822	 0.452597366795402
1823	 0.452625996973349
1824	 0.452206964120714
1825	 0.4520496469761
1826	 0.452032422289171
1827	 0.451941740430646
1828	 0.4518400408236
1829	 0.451677095356857
1830	 0.451554055506512
1831	 0.44641206253996
1832	 0.446502209257323
1833	 0.446466318789135
1834	 0.446402558469705
1835	 0.446317932526487
1836	 0.446227894413575
1837	 0.445984263948034
1838	 0.44590152133314
1839	 0.445933103414961
1840	 0.4458751392313
1841	 0.445929971678354
1842	 0.446062366533159
1843	 0.446043492315441
1844	 0.446018005322043
1845	 0.445868137209261
1846	 0.445517797128026
1847	 0.445313328663183
1848	 0.445108093455549
1849	 0.444911079095294
1850	 0.444770412634857
1851	 0.444527175057951
1852	 0.444258309233328
1853	 0.443995877267191
1854	 0.443648904857892
1855	 0.443275596012466
1856	 0.442874067443984
1857	 0.442452435192446
1858	 0.441908025715261
1859	 0.441343522724749
1860	 0.44065384242667
1861	 0.439824833892625
1862	 0.438923317309373
1863	 0.43795657178375
1864	 0.436891174910262
1865	 0.435742312850156
1866	 0.434519387532453
1867	 0.433150449599477
1868	 0.431652905944605
1869	 0.430095073458442
1870	 0.428363801955242
1871	 0.426501717723794
1872	 0.424512480222119
1873	 0.422463431592299
1874	 0.420464132009364
1875	 0.418363167371851
1876	 0.416207049682119
1877	 0.413965146275119
1878	 0.411477054194422
1879	 0.408771987287605
1880	 0.405919433787921
1881	 0.402985383848811
1882	 0.399986085137966
1883	 0.396877113709423
1884	 0.393601996314055
1885	 0.390252118402284
1886	 0.386706653094175
1887	 0.382934113625271
1888	 0.379108070498297
1889	 0.375157087522749
1890	 0.371046061651294
1891	 0.366763406917903
1892	 0.362397760469447
1893	 0.357959816068091
1894	 0.353467139038912
1895	 0.348957375811077
1896	 0.34446437236393
1897	 0.339968588906414
1898	 0.335511607779156
1899	 0.331207514032598
1900	 0.327096366230587
1901	 0.323111364507029
1902	 0.319445656319574
1903	 0.316084486101253
1904	 0.312793487755213
1905	 0.309887452519173
1906	 0.307303385332245
1907	 0.304853530158284
1908	 0.302883439377581
1909	 0.301207864982683
1910	 0.299644761609856
1911	 0.298409838917571
1912	 0.297503972286661
1913	 0.296762729799224
1914	 0.296234911260706
1915	 0.296017615583673
1916	 0.295881855208384
1917	 0.295873184778978
1918	 0.29606695308976
1919	 0.296412599779611
1920	 0.296838521918266
1921	 0.297277579648767
1922	 0.297724442120748
1923	 0.298207375431601
1924	 0.298662083302723
1925	 0.299210773319508
1926	 0.299894868373001
1927	 0.3005859365709
1928	 0.301307995776777
1929	 0.302054352503497
1930	 0.30272862484326
1931	 0.303345542464069
1932	 0.303969049086188
1933	 0.304659727111824
1934	 0.305336405286147
1935	 0.306026156624889
1936	 0.306734346526966
1937	 0.307482509220908
1938	 0.308163756134321
1939	 0.308858299409412
1940	 0.309658977734595
1941	 0.310420162572767
1942	 0.311137396675784
1943	 0.311847332435867
1944	 0.312458464054957
1945	 0.313105621383927
1946	 0.313691743175364
1947	 0.314372394096622
1948	 0.31508684651973
1949	 0.315867519234483
1950	 0.316662461121326
1951	 0.31741013355703
1952	 0.318083960798941
1953	 0.31875679753077
1954	 0.319373647716972
1955	 0.320020244184944
1956	 0.320736505787013
1957	 0.32140394795074
1958	 0.322157202035012
1959	 0.323020030883592
1960	 0.32382260808162
1961	 0.324626384071414
1962	 0.325477546088959
1963	 0.326266885244948
1964	 0.326997777884196
1965	 0.327753511306385
1966	 0.328499488198626
1967	 0.329294355878663
1968	 0.330179743567124
1969	 0.331035643308204
1970	 0.331934804845197
1971	 0.332813589944334
1972	 0.33369054707041
1973	 0.334516630632958
1974	 0.335339157930183
1975	 0.336131057117645
1976	 0.336815993813049
1977	 0.337566063121736
1978	 0.338376438676684
1979	 0.339222038404384
1980	 0.340163871216308
1981	 0.341118774341525
1982	 0.342065998682255
1983	 0.343013943509527
1984	 0.343971439784333
1985	 0.344953382148786
1986	 0.345917099189995
1987	 0.34687159819684
1988	 0.347836445434458
1989	 0.348798460921315
1990	 0.349721889263218
1991	 0.350642474496193
1992	 0.35152708555343
1993	 0.35235410538181
1994	 0.353252456046418
1995	 0.354146518920551
1996	 0.355019729656875
1997	 0.355946649323348
1998	 0.356923637958682
1999	 0.357887289268194
2000	 0.358890006571877
2001	 0.359852109779318
2002	 0.360816485027238
2003	 0.361752226655304
2004	 0.362731572757746
2005	 0.363736977830604
2006	 0.364628905564076
2007	 0.365501014514831
2008	 0.366370233001424
2009	 0.367141019322926
2010	 0.367989831808749
2011	 0.368895526962328
2012	 0.369791723389644
2013	 0.370673473190235
2014	 0.371558715708299
2015	 0.372499192656439
2016	 0.373399199730247
2017	 0.374191515778031
2018	 0.374941839434726
2019	 0.375672333628509
2020	 0.376351517070458
2021	 0.377093428346541
2022	 0.377912442568768
2023	 0.378673792121172
2024	 0.379422481504323
2025	 0.380156468225461
2026	 0.380884271689042
2027	 0.381563592460339
2028	 0.382187754063894
2029	 0.382857187133735
2030	 0.38351800235703
2031	 0.384137454122029
2032	 0.384817514327348
2033	 0.385477079151653
2034	 0.386052937408031
2035	 0.386551372763017
2036	 0.387067488662422
2037	 0.387485055192181
2038	 0.388025870812822
2039	 0.388641439193909
2040	 0.3892441743806
2041	 0.389956970005366
2042	 0.390530095754183
2043	 0.391053056105773
2044	 0.391495719310888
2045	 0.391932710345034
2046	 0.392384290867317
2047	 0.3928999101241
2048	 0.393404235214686
2049	 0.393871378435355
2050	 0.394374246730446
2051	 0.394852519302977
2052	 0.395290793969201
2053	 0.395800977018015
2054	 0.396376799469937
2055	 0.396852613220094
2056	 0.39734102325091
2057	 0.397795164801553
2058	 0.398156246617481
2059	 0.398538867247022
2060	 0.398965047092007
2061	 0.399389869036777
2062	 0.399888739466982
2063	 0.400329773814067
2064	 0.400840171007423
2065	 0.401392210336227
2066	 0.401872685942477
2067	 0.402333545401455
2068	 0.402795307769344
2069	 0.4032333618024
2070	 0.403620290354886
2071	 0.403959875961353
2072	 0.404334595524444
2073	 0.404663162459201
2074	 0.405050169524844
2075	 0.405512904097838
2076	 0.405915206139164
2077	 0.406422347192724
2078	 0.406827286563336
2079	 0.407105539336033
2080	 0.407348473305529
2081	 0.407650142374209
2082	 0.407854497538054
2083	 0.408198085353887
2084	 0.408707652128908
2085	 0.409112361923548
2086	 0.409505321600114
2087	 0.409860181251973
2088	 0.410146211120724
2089	 0.410499198229998
2090	 0.410905169841775
2091	 0.411253678346359
2092	 0.411626543199576
2093	 0.411933031338496
2094	 0.412261265880864
2095	 0.412455747508598
2096	 0.412599802922948
2097	 0.412891963369711
2098	 0.413181785608848
2099	 0.413497984245414
2100	 0.413777472197728
2101	 0.414103988571557
2102	 0.414388833313477
2103	 0.414572728766891
2104	 0.41483368359702
2105	 0.415197128597842
2106	 0.415477071512773
2107	 0.415693901000912
2108	 0.415957908756723
2109	 0.416229549009478
2110	 0.41646624096073
2111	 0.416732529758367
2112	 0.417039402390634
2113	 0.417322724238784
2114	 0.417547989417784
2115	 0.417822729127554
2116	 0.418145303083739
2117	 0.418404690020042
2118	 0.418599275877911
2119	 0.418909197852315
2120	 0.419239172591405
2121	 0.419578357821854
2122	 0.42012241630482
2123	 0.42042446059956
2124	 0.420545588448344
2125	 0.420705578699938
2126	 0.42078841593791
2127	 0.420840639054307
2128	 0.420937158821692
2129	 0.421112618975672
2130	 0.421141474607105
2131	 0.421141337566291
2132	 0.421114118516811
2133	 0.42101712126669
2134	 0.420924405343821
2135	 0.420824679516456
2136	 0.420680363681447
2137	 0.420534741915436
2138	 0.420309549054845
2139	 0.420037985885679
2140	 0.419721051485004
2141	 0.419317957273923
2142	 0.418890896389692
2143	 0.418471854013576
2144	 0.41795597068751
2145	 0.417331598522798
2146	 0.416726989638292
2147	 0.416092392109205
2148	 0.415397590809208
2149	 0.414662718250005
2150	 0.41389799276149
2151	 0.413249096891197
2152	 0.412503224944466
2153	 0.411737278325041
2154	 0.411012702215605
2155	 0.4102532056876
2156	 0.409353765818857
2157	 0.408597905902722
2158	 0.407953226046865
2159	 0.407249218944559
2160	 0.40652952540507
2161	 0.405860816352722
2162	 0.405184189615794
2163	 0.404555914490346
2164	 0.403968680620069
2165	 0.403407931269806
2166	 0.40288910861332
2167	 0.402400493376043
2168	 0.401925060741933
2169	 0.401553463799507
2170	 0.401143513170606
2171	 0.40069404218352
2172	 0.4003132116143
2173	 0.399864597587105
2174	 0.399434776104264
2175	 0.399027969095085
2176	 0.398571733565715
2177	 0.398113975141827
2178	 0.397573144618999
2179	 0.397020560077402
2180	 0.396369084771397
2181	 0.395593142005865
2182	 0.394843284217979
2183	 0.394041457671775
2184	 0.393229342409709
2185	 0.39245796335818
2186	 0.39157033894781
2187	 0.390621883599628
2188	 0.389600396341647
2189	 0.388530919987169
2190	 0.387311274107985
2191	 0.38604767807215
2192	 0.384753490671061
2193	 0.383338315715146
2194	 0.38193490121585
2195	 0.380642493244704
2196	 0.379356267277394
2197	 0.377972688602034
2198	 0.37663065638187
2199	 0.375134737390728
2200	 0.373455279583464
2201	 0.371868666385226
2202	 0.370125293359677
2203	 0.368728928450132
2204	 0.367244786707883
2205	 0.366356821002896
2206	 0.365820340393174
2207	 0.365603611419046
2208	 0.36582836132971
2209	 0.366311911658693
2210	 0.367088735296332
2211	 0.368201233160371
2212	 0.369745364981407
2213	 0.371429542607765
2214	 0.373666785507358
2215	 0.375636968802164
2216	 0.377729525309233
2217	 0.379707292068804
2218	 0.381419344747404
2219	 0.382988818849375
2220	 0.384445874789351
2221	 0.385761982949497
2222	 0.386870030699874
2223	 0.38774651899415
2224	 0.388416882437038
2225	 0.388763531090756
2226	 0.389208750584939
2227	 0.389539724192874
2228	 0.389751466558367
2229	 0.389897671407922
2230	 0.389988166500044
2231	 0.389835321927414
2232	 0.389875999789833
2233	 0.390027931459214
2234	 0.390078620750092
2235	 0.390168798653032
2236	 0.390155919951575
2237	 0.390033716104787
2238	 0.389958617029514
2239	 0.389803237170349
2240	 0.389725357875012
2241	 0.389659275796121
2242	 0.389660410488769
2243	 0.389800564581256
2244	 0.389833964183662
2245	 0.389916353444465
2246	 0.389845185118278
2247	 0.389725917567975
2248	 0.389754121439882
2249	 0.389790792521618
2250	 0.389896944146625
2251	 0.389918939889832
2252	 0.389791521062839
2253	 0.389711920400231
2254	 0.389628503111191
2255	 0.38958308258591
2256	 0.389642069043969
2257	 0.389588991963282
2258	 0.389453581637563
2259	 0.389432301468842
2260	 0.389367702974664
2261	 0.38940225287282
2262	 0.389652583352267
2263	 0.389610313296739
2264	 0.389453931789225
2265	 0.389371942911184
2266	 0.389138031664673
2267	 0.388997264249395
2268	 0.389085851919055
2269	 0.388885988072778
2270	 0.38844219664168
2271	 0.388168448132615
2272	 0.387846563481213
2273	 0.387538507477838
2274	 0.387384513224923
2275	 0.3871273071574
2276	 0.386807323827894
2277	 0.386416970941244
2278	 0.385975424094813
2279	 0.385447538957117
2280	 0.384696244268673
2281	 0.38411059152758
2282	 0.383514931335364
2283	 0.383119436330246
2284	 0.382756794131096
2285	 0.382321264563363
2286	 0.381686424294623
2287	 0.381058807803388
2288	 0.380368977966971
2289	 0.379736350173064
2290	 0.3794836614848
2291	 0.37920377156879
2292	 0.378774693414197
2293	 0.378460928466129
2294	 0.378028250304137
2295	 0.377594746743398
2296	 0.377370988295612
2297	 0.377140043124385
2298	 0.376900470691426
2299	 0.376437178713441
2300	 0.375764362703208
2301	 0.375079020895904
2302	 0.37438998609982
2303	 0.373480789696685
2304	 0.372933008363373
2305	 0.37270089148976
2306	 0.372124417758855
2307	 0.371557185146691
2308	 0.370864889913301
2309	 0.369796965887738
2310	 0.36912620964173
2311	 0.36860350994103
2312	 0.368171407302402
2313	 0.36790699353944
2314	 0.367691572393224
2315	 0.367533713111154
2316	 0.367492508268488
2317	 0.367701232802182
2318	 0.367681234530951
2319	 0.367652329187209
2320	 0.367639723130096
2321	 0.367432070292113
2322	 0.367422636651895
2323	 0.36767192551624
2324	 0.367601120957464
2325	 0.367477714272756
2326	 0.367282726375907
2327	 0.366775957512368
2328	 0.366539037089453
2329	 0.366440219550401
2330	 0.366250438372068
2331	 0.366006108066999
2332	 0.36594932497526
2333	 0.366151422630073
2334	 0.365983619739284
2335	 0.365811701518648
2336	 0.365510339188244
2337	 0.364740838097438
2338	 0.364194504088929
2339	 0.363771088721204
2340	 0.363423873371316
2341	 0.363116876018885
2342	 0.362769879467065
2343	 0.362752832598363
2344	 0.362431262560566
2345	 0.361696320871951
2346	 0.361215760958213
2347	 0.36067420148034
2348	 0.359778978355619
2349	 0.359245071194108
2350	 0.358740606253657
2351	 0.358151064701177
2352	 0.357921278580478
2353	 0.357603918698664
2354	 0.357351485194392
2355	 0.356954277127384
2356	 0.356293659770823
2357	 0.355832402808487
2358	 0.355383985625205
2359	 0.355182200144521
2360	 0.355284980885137
2361	 0.355139877804537
2362	 0.354871353050564
2363	 0.354433651052959
2364	 0.35376491545714
2365	 0.353373855856921
2366	 0.352967137150392
2367	 0.35258110874031
2368	 0.352262736007765
2369	 0.351572226703375
2370	 0.350848950727618
2371	 0.34990174225534
2372	 0.348821903847227
2373	 0.347976770203775
2374	 0.347085866173921
2375	 0.346501894083196
2376	 0.346091043678415
2377	 0.345397818355027
2378	 0.344815146583732
2379	 0.344003273494343
2380	 0.342944974965209
2381	 0.342241493114115
2382	 0.341260417516282
2383	 0.340566300290273
2384	 0.340309879338924
2385	 0.339500118106321
2386	 0.338917078794182
2387	 0.33850846012272
2388	 0.337643152362831
2389	 0.336884020248218
2390	 0.336451388551699
2391	 0.336233880701207
2392	 0.33594832925209
2393	 0.335748209837498
2394	 0.335896534501923
2395	 0.335627065509104
2396	 0.335232447894957
2397	 0.334891456866673
2398	 0.33444967705593
2399	 0.334023138767865
2400	 0.333490767444237
2401	 0.333101079776623
2402	 0.33241668899509
2403	 0.331627184745676
2404	 0.330972865080739
2405	 0.330540803820957
2406	 0.330244647479057
2407	 0.329757232869053
2408	 0.329164959251713
2409	 0.328269502126871
2410	 0.327693808120436
2411	 0.327221898180411
2412	 0.326904260524066
2413	 0.32666499652723
2414	 0.325643033814942
2415	 0.324738930462542
2416	 0.323637765375518
2417	 0.322150614295929
2418	 0.321189827015399
2419	 0.320597930531226
2420	 0.319965743652604
2421	 0.319490539549407
2422	 0.319140755294953
2423	 0.317842370766658
2424	 0.31711004585151
2425	 0.31701409937715
2426	 0.316424191022331
2427	 0.31567675771715
2428	 0.314795542638741
2429	 0.313395678173546
2430	 0.312471647512341
2431	 0.31200152939275
2432	 0.311317399382214
2433	 0.310588375775009
2434	 0.309910280638702
2435	 0.309186101492127
2436	 0.308551980073436
2437	 0.308183129572424
2438	 0.307811780430677
2439	 0.306856202882163
2440	 0.306390548015126
2441	 0.305882197653267
2442	 0.304492218036803
2443	 0.303207582064076
2444	 0.301682024002112
2445	 0.29970354634264
2446	 0.299176177221819
2447	 0.299107239141134
2448	 0.298926269866678
2449	 0.299373351611865
2450	 0.299298804844808
2451	 0.299098593949796
2452	 0.298585642399345
2453	 0.29808830739674
2454	 0.297663156899196
2455	 0.296698149347877
2456	 0.296026162093589
2457	 0.294921220173902
2458	 0.293653100323672
2459	 0.292838490601364
2460	 0.292240962256698
2461	 0.291759456449184
2462	 0.291712587495737
2463	 0.291259492847789
2464	 0.289732850953244
2465	 0.288592715248279
2466	 0.287335232533172
2467	 0.286800780839586
2468	 0.287580254434571
2469	 0.287845887845024
2470	 0.287374724166755
2471	 0.285873431322369
2472	 0.283558861227476
2473	 0.28223694157557
2474	 0.282058435818606
2475	 0.28201921378917
2476	 0.282330318080353
2477	 0.282143776891589
2478	 0.281229070852006
2479	 0.280696253437299
2480	 0.279332004919046
2481	 0.278090244884139
2482	 0.27783166319013
2483	 0.27722975562133
2484	 0.277004112424037
2485	 0.277346029327199
2486	 0.276268412325389
2487	 0.275678861230527
2488	 0.275824117498701
2489	 0.274914075072908
2490	 0.27439448748295
2491	 0.273751351968997
2492	 0.272880063660666
2493	 0.272941952622795
2494	 0.273162922698484
2495	 0.2735274849041
2496	 0.273092605731385
2497	 0.272385754801856
2498	 0.272859471217877
2499	 0.272216114737024
2500	 0.271462433595114
