Wavelength	signature0020.asd
350	 0.191350105667098
351	 0.188163490664995
352	 0.182315518194006
353	 0.182555248143409
354	 0.19496635540756
355	 0.189176061344417
356	 0.185452956726932
357	 0.186889034864294
358	 0.182721749876809
359	 0.181631740368326
360	 0.183121601908001
361	 0.185192927681923
362	 0.185623954945052
363	 0.179848931614871
364	 0.177455034976892
365	 0.183238952311008
366	 0.184244382733091
367	 0.184123108113874
368	 0.182297257059855
369	 0.17901934236974
370	 0.183415963056555
371	 0.185600149710709
372	 0.184926145608429
373	 0.185925132459825
374	 0.181105300639012
375	 0.178030728032721
376	 0.180222793916921
377	 0.184664185985315
378	 0.182470471694629
379	 0.182608743841076
380	 0.188987245066478
381	 0.187791008512581
382	 0.184858287451999
383	 0.18346000283914
384	 0.184854709794003
385	 0.185165759261359
386	 0.187667024979015
387	 0.189708373533305
388	 0.186710947625803
389	 0.187184429437061
390	 0.188376084586753
391	 0.18858127952586
392	 0.188535439835245
393	 0.190013323754825
394	 0.192102059570848
395	 0.19312640899099
396	 0.190477657593863
397	 0.19173849221966
398	 0.193641011375601
399	 0.191766991079498
400	 0.191909802573366
401	 0.192176026923634
402	 0.192878249911601
403	 0.195240643950882
404	 0.194676233400139
405	 0.193744792988859
406	 0.193784423224954
407	 0.193614602719997
408	 0.194964029894432
409	 0.195902727501674
410	 0.195319206029114
411	 0.196034129860696
412	 0.196122671507427
413	 0.196124491117146
414	 0.197154861040346
415	 0.198216664146949
416	 0.198457924409675
417	 0.198272999606581
418	 0.198931079934664
419	 0.199430206708196
420	 0.199567568454074
421	 0.199717469740042
422	 0.20109698482458
423	 0.201669041751818
424	 0.202004820936483
425	 0.202909948625977
426	 0.203060422485601
427	 0.203833938112136
428	 0.204871581923533
429	 0.204972333531593
430	 0.2056376050039
431	 0.206254836742217
432	 0.206628818784539
433	 0.207393093229904
434	 0.208012275140978
435	 0.208438522749111
436	 0.208797836399428
437	 0.209336823299854
438	 0.210049834488206
439	 0.21094636144312
440	 0.211926760915143
441	 0.212160962891803
442	 0.212941897797759
443	 0.214098353808833
444	 0.213843035161951
445	 0.215054360907509
446	 0.21618004493923
447	 0.21615433016112
448	 0.217317005233012
449	 0.218000085152254
450	 0.218380792290244
451	 0.219210785015688
452	 0.22024942266562
453	 0.220813149160759
454	 0.221083984620915
455	 0.22196761325611
456	 0.222081495061173
457	 0.222411670608303
458	 0.223483801181595
459	 0.224014254985061
460	 0.224400936970237
461	 0.224830894820589
462	 0.225463327183108
463	 0.226637248582585
464	 0.227162997853481
465	 0.227063008732299
466	 0.227368815241701
467	 0.227531246671225
468	 0.228173424929729
469	 0.229267636453111
470	 0.229211714375392
471	 0.229429948951155
472	 0.229946308917215
473	 0.23040963044099
474	 0.230941311245015
475	 0.231550542593934
476	 0.232142130197932
477	 0.232545819117067
478	 0.232641207723223
479	 0.232920668978829
480	 0.233617334903481
481	 0.234398234398063
482	 0.234611880976804
483	 0.23467285665354
484	 0.235178614237363
485	 0.235928947494226
486	 0.236223431402267
487	 0.236212095667557
488	 0.236656371278082
489	 0.237340593513925
490	 0.238139965461119
491	 0.238812827870444
492	 0.238853980753951
493	 0.239391078276395
494	 0.240139926088405
495	 0.240544358937542
496	 0.240990323072468
497	 0.241389053917893
498	 0.241832428037485
499	 0.242521636267232
500	 0.243138187358162
501	 0.243623623925576
502	 0.244071068556212
503	 0.244783668505016
504	 0.245404353647354
505	 0.245981546777984
506	 0.246612216383813
507	 0.246951500609699
508	 0.247382476679211
509	 0.24800035803112
510	 0.24863752352894
511	 0.249324204154082
512	 0.249808584426059
513	 0.250085609690854
514	 0.250738142715427
515	 0.251383123666424
516	 0.25179902641802
517	 0.251992818032232
518	 0.252840583087884
519	 0.253478525394543
520	 0.253808633092497
521	 0.254486642314637
522	 0.25498055819991
523	 0.255391303640552
524	 0.255879098042783
525	 0.256482928667575
526	 0.25709642454139
527	 0.257671501354858
528	 0.25820569107626
529	 0.258790652695225
530	 0.259426017158213
531	 0.260082793778202
532	 0.26071481800032
533	 0.26143147774175
534	 0.262188795349413
535	 0.262921988226974
536	 0.263602714717531
537	 0.264215719304757
538	 0.264922348868787
539	 0.265879882473897
540	 0.266580203870701
541	 0.267326799388965
542	 0.268249380081748
543	 0.269167084855666
544	 0.2700924082742
545	 0.271071794689049
546	 0.272112641592966
547	 0.273058681168087
548	 0.27397877245322
549	 0.275025296565389
550	 0.276339102727711
551	 0.277525017762177
552	 0.278652984692165
553	 0.279818851621593
554	 0.281068700004096
555	 0.282281076936344
556	 0.283544099100139
557	 0.284941092572112
558	 0.286257434483765
559	 0.287651705022411
560	 0.28907254587419
561	 0.290330127221201
562	 0.29168064419295
563	 0.293046642070268
564	 0.294405699703985
565	 0.295943706276397
566	 0.297597568060943
567	 0.299267759972394
568	 0.300844806935418
569	 0.302261261533527
570	 0.303674056930764
571	 0.30511374075056
572	 0.30649355546821
573	 0.308117121719766
574	 0.30994996329954
575	 0.311862216025267
576	 0.313638098100148
577	 0.315564391706381
578	 0.31759113799255
579	 0.319509951243176
580	 0.321173442424873
581	 0.322931623227251
582	 0.324853329085891
583	 0.326622070476915
584	 0.328440169759283
585	 0.330227534063937
586	 0.331861815284041
587	 0.333269590593869
588	 0.334736748803447
589	 0.336199733153647
590	 0.337422287632553
591	 0.338590918247101
592	 0.339656886981988
593	 0.340614438688854
594	 0.341546904269804
595	 0.342391349291477
596	 0.343164492429199
597	 0.343898666117956
598	 0.344607892719202
599	 0.345397752746932
600	 0.346162847045617
601	 0.346682530303385
602	 0.347320827126616
603	 0.348049796562806
604	 0.348770358780127
605	 0.349357503289693
606	 0.349843573503359
607	 0.350340500182033
608	 0.350921722348581
609	 0.351335983433066
610	 0.351742442904593
611	 0.352227191291085
612	 0.352778089512685
613	 0.35320578260845
614	 0.353581772405411
615	 0.354005589104928
616	 0.354520029420953
617	 0.355067944657913
618	 0.355565588148964
619	 0.355968648359741
620	 0.356504784319618
621	 0.357067998213543
622	 0.357621171787367
623	 0.358231407961461
624	 0.358904956602496
625	 0.359499590031839
626	 0.359977116114157
627	 0.360674557628596
628	 0.36148245690876
629	 0.362258555772406
630	 0.362895845378384
631	 0.363703401779825
632	 0.364640611805855
633	 0.3655793871133
634	 0.366326669226045
635	 0.367222132243635
636	 0.368239943090888
637	 0.369252897089897
638	 0.370125391649617
639	 0.371103764876535
640	 0.372180215741947
641	 0.373186700442739
642	 0.374136330312653
643	 0.375139493634078
644	 0.376207780351828
645	 0.377178193196948
646	 0.378108682689242
647	 0.379033931663154
648	 0.379972636886078
649	 0.380897320810373
650	 0.381837442422124
651	 0.382742521511773
652	 0.383525381917313
653	 0.384388016801651
654	 0.385244082599117
655	 0.3860477446766
656	 0.386913925426905
657	 0.387715036532773
658	 0.388553251980906
659	 0.389534206945473
660	 0.390406932535754
661	 0.391325709702016
662	 0.392343441985757
663	 0.393410906225751
664	 0.394529434436602
665	 0.395643634610035
666	 0.396700551530005
667	 0.397648143459588
668	 0.398751318491986
669	 0.399940433152968
670	 0.401046400605309
671	 0.402122923141669
672	 0.403231833867108
673	 0.404370000627624
674	 0.405469269267357
675	 0.406422057881633
676	 0.407404301365156
677	 0.408514674388754
678	 0.40954625549987
679	 0.410518807568959
680	 0.411582491049416
681	 0.412854621412988
682	 0.41392646719068
683	 0.414964914514613
684	 0.41611844055976
685	 0.417462676997278
686	 0.418816892284551
687	 0.420200242792955
688	 0.421634319889966
689	 0.42303147554219
690	 0.424526125461469
691	 0.426063640803527
692	 0.427539049901826
693	 0.429062683987374
694	 0.430588514686664
695	 0.432073217181392
696	 0.433491988964511
697	 0.434892531281581
698	 0.436274194830452
699	 0.437626629865373
700	 0.438950051712668
701	 0.440204403090407
702	 0.441442299376992
703	 0.442714074202558
704	 0.443794853698804
705	 0.444907576875733
706	 0.446054749729658
707	 0.446995394859208
708	 0.44800173717893
709	 0.448997217714491
710	 0.449906749987621
711	 0.450826333862848
712	 0.451700876218302
713	 0.452589056351269
714	 0.45353764942493
715	 0.454265712617839
716	 0.455067541874995
717	 0.45596642448746
718	 0.456702638542287
719	 0.457434163836978
720	 0.458177714868963
721	 0.458919849809678
722	 0.459635894761325
723	 0.460331155533407
724	 0.460932507198044
725	 0.461410596504082
726	 0.462093772931708
727	 0.462725679766432
728	 0.4632839336554
729	 0.463953885971471
730	 0.464465806862378
731	 0.464933218738789
732	 0.465466359368784
733	 0.466054988937914
734	 0.46653897780073
735	 0.466985327406263
736	 0.467492382609833
737	 0.467929198083289
738	 0.468344961749953
739	 0.468730467113643
740	 0.46904879937678
741	 0.469473001499878
742	 0.469973361594572
743	 0.470462343466222
744	 0.470813265404975
745	 0.471131465387551
746	 0.471434679997998
747	 0.471719261650217
748	 0.471983255582982
749	 0.47229846208847
750	 0.472671727651746
751	 0.473054579017505
752	 0.473322387654342
753	 0.4735503817929
754	 0.473793686830812
755	 0.47405481515093
756	 0.474334830045749
757	 0.474584379006262
758	 0.474767829043956
759	 0.474903887598074
760	 0.475054930662596
761	 0.475227740229025
762	 0.475407441753524
763	 0.475614346521366
764	 0.475812393885519
765	 0.475953462172066
766	 0.47600323280296
767	 0.476194201900754
768	 0.476380102803642
769	 0.476478642809133
770	 0.476627275934049
771	 0.476800553031058
772	 0.476945808051199
773	 0.47702542583649
774	 0.477085185838517
775	 0.477177432790345
776	 0.477316403223217
777	 0.477475128271753
778	 0.4775326529024
779	 0.477576773381854
780	 0.477660040942311
781	 0.477767241121467
782	 0.477848273014194
783	 0.47789483310909
784	 0.477925027638458
785	 0.477994179637678
786	 0.478036389119118
787	 0.478074306960272
788	 0.478138594071623
789	 0.478155548792796
790	 0.478167841042177
791	 0.478192438576926
792	 0.478216861389519
793	 0.478162701880911
794	 0.478092243556704
795	 0.478074230746376
796	 0.478156329143045
797	 0.478221363552694
798	 0.478211481428649
799	 0.478138305755706
800	 0.478146578639567
801	 0.478041527128354
802	 0.477949307178606
803	 0.478022837753562
804	 0.477998469826327
805	 0.477991524406787
806	 0.477959968370784
807	 0.477787837606032
808	 0.477694204009266
809	 0.477727004674832
810	 0.477802633116718
811	 0.477721854756415
812	 0.477689481798142
813	 0.477640221388621
814	 0.477542786029218
815	 0.477561632853558
816	 0.477464553735331
817	 0.477368867384738
818	 0.477406564536757
819	 0.477322069266419
820	 0.477193973302073
821	 0.477080081029027
822	 0.477008606208112
823	 0.476896012207472
824	 0.476890095046541
825	 0.476970436410185
826	 0.476945886675729
827	 0.476799561321631
828	 0.476677037198685
829	 0.476649136642247
830	 0.476623055304687
831	 0.476584543185543
832	 0.476528358646932
833	 0.476457367236199
834	 0.476376444568211
835	 0.47632509464694
836	 0.476263868786155
837	 0.476151565274685
838	 0.47607561866058
839	 0.476037576790638
840	 0.476019716742862
841	 0.475994097324424
842	 0.475953932125836
843	 0.475895488826089
844	 0.475820466569962
845	 0.475739551207396
846	 0.475713928664421
847	 0.475724857509925
848	 0.475731193733321
849	 0.475684036537446
850	 0.475637585058268
851	 0.475540708009106
852	 0.475395053205515
853	 0.475382721193216
854	 0.475428437780055
855	 0.475402849331361
856	 0.475236073054618
857	 0.475128247696349
858	 0.475113830106865
859	 0.475125142272233
860	 0.475082062430672
861	 0.47515423994069
862	 0.47519965870263
863	 0.475174181094771
864	 0.475128886982476
865	 0.475129987998728
866	 0.475060297016702
867	 0.474925065276709
868	 0.474878523152852
869	 0.474982957724721
870	 0.475011406497121
871	 0.474892990831532
872	 0.474861800768972
873	 0.474910641850681
874	 0.475013762423898
875	 0.475118680704345
876	 0.475144028457658
877	 0.475131258858606
878	 0.475155058996594
879	 0.47525053061765
880	 0.475318541363762
881	 0.475269140030991
882	 0.475240423728441
883	 0.475386505434365
884	 0.475548434888009
885	 0.475598661923952
886	 0.475521839210109
887	 0.475423070497681
888	 0.475637866261311
889	 0.47583643016579
890	 0.475914764852459
891	 0.475964870082917
892	 0.476012551866112
893	 0.47617441667261
894	 0.476356334685298
895	 0.47633014473301
896	 0.476457465489444
897	 0.47660862202558
898	 0.476710546396266
899	 0.476825366294017
900	 0.476968219180134
901	 0.477114163600972
902	 0.47720718568304
903	 0.477183031496043
904	 0.477494407641709
905	 0.477828622485681
906	 0.477935636485125
907	 0.477948144591191
908	 0.478094688100509
909	 0.478306405021316
910	 0.478488353273918
911	 0.478659591023054
912	 0.47883510965503
913	 0.479058603081122
914	 0.47930453496692
915	 0.479373621851238
916	 0.479439039474421
917	 0.479620504987678
918	 0.479928024922374
919	 0.480124119970016
920	 0.48044236337632
921	 0.480676497502573
922	 0.480673193507393
923	 0.48091495930221
924	 0.481094464634267
925	 0.481239810040744
926	 0.481462115936611
927	 0.48171710066071
928	 0.481895112610649
929	 0.48207097191346
930	 0.482351106070425
931	 0.482658104874792
932	 0.482852068865238
933	 0.483005672571641
934	 0.483243111313676
935	 0.483478515759296
936	 0.483669318739973
937	 0.483856515281631
938	 0.484070273574125
939	 0.4840967079557
940	 0.48441092919908
941	 0.484771823480058
942	 0.484815327198843
943	 0.485264345900325
944	 0.485280229726367
945	 0.485216782292179
946	 0.485709994148686
947	 0.48595311243326
948	 0.486094006477235
949	 0.486354971526903
950	 0.486850374123952
951	 0.487179229673288
952	 0.487309476083267
953	 0.487410716237327
954	 0.487677224415222
955	 0.488011023750771
956	 0.488365829694668
957	 0.488543007357637
958	 0.488484443451677
959	 0.488833502644797
960	 0.48914296439304
961	 0.489462893794024
962	 0.489900778952884
963	 0.489983008850993
964	 0.490584519919263
965	 0.491065708498944
966	 0.490828486159054
967	 0.491198019628776
968	 0.491662157233102
969	 0.4919826488842
970	 0.492232117196924
971	 0.493109413954282
972	 0.493198358168222
973	 0.493196586471952
974	 0.49381628717
975	 0.494278329452343
976	 0.494894596759488
977	 0.495369117863726
978	 0.495562933029323
979	 0.495891799716275
980	 0.49595513709926
981	 0.496287071009377
982	 0.497093853598338
983	 0.497765115912211
984	 0.498071611829483
985	 0.498202608775773
986	 0.49839548795214
987	 0.498766270628677
988	 0.499010195140469
989	 0.499292373743926
990	 0.499695843027651
991	 0.500138663915492
992	 0.500514745725051
993	 0.501145064238407
994	 0.501721242811002
995	 0.501682920654126
996	 0.502093101558202
997	 0.502730100003743
998	 0.503254309377918
999	 0.503456793939991
1000	 0.503770132366567
1001	 0.490036368902638
1002	 0.490394328805848
1003	 0.490602453304329
1004	 0.490871467528821
1005	 0.491226855409189
1006	 0.491566803320657
1007	 0.491845562289958
1008	 0.491984504590757
1009	 0.49223906684594
1010	 0.492492399122876
1011	 0.492783635798023
1012	 0.493052124075058
1013	 0.493437325189291
1014	 0.493630956117748
1015	 0.49371878023339
1016	 0.494013191544802
1017	 0.494215187922936
1018	 0.494436080350412
1019	 0.494750588913568
1020	 0.494892640783301
1021	 0.495131537421749
1022	 0.495526561511192
1023	 0.495749526647679
1024	 0.495961329065675
1025	 0.496153183354749
1026	 0.496380475728201
1027	 0.496565146859427
1028	 0.496846138219353
1029	 0.497046957466278
1030	 0.497246342204429
1031	 0.497528785279614
1032	 0.497652611347664
1033	 0.497811339831592
1034	 0.498030721056532
1035	 0.498186723040856
1036	 0.498384575721044
1037	 0.498682163468195
1038	 0.498931114091046
1039	 0.499193794395984
1040	 0.499323551263822
1041	 0.4994627898529
1042	 0.499616372751122
1043	 0.499789125925338
1044	 0.500045736110516
1045	 0.500270101680682
1046	 0.500480104711115
1047	 0.500754375928273
1048	 0.50091648199781
1049	 0.501131541920105
1050	 0.501476574331615
1051	 0.501674591210822
1052	 0.501845489186164
1053	 0.502050392417842
1054	 0.502246127685626
1055	 0.502403996518315
1056	 0.502643423899313
1057	 0.502960965657341
1058	 0.503257511223982
1059	 0.503415108830169
1060	 0.503527080427242
1061	 0.503736434197351
1062	 0.503948355648807
1063	 0.504218747031617
1064	 0.504600819702474
1065	 0.504857200196452
1066	 0.505075115497766
1067	 0.505295054994922
1068	 0.505470475055154
1069	 0.505570419712761
1070	 0.505738144542208
1071	 0.505891636188812
1072	 0.506094517222889
1073	 0.506314829257013
1074	 0.506530011475339
1075	 0.506741822718153
1076	 0.506935114374557
1077	 0.507201950745098
1078	 0.507474897816766
1079	 0.507653278448697
1080	 0.507863177345929
1081	 0.50805783987726
1082	 0.50822312133004
1083	 0.508438415598447
1084	 0.50872668572718
1085	 0.508942627000236
1086	 0.50915478940827
1087	 0.509353782774407
1088	 0.509491549449066
1089	 0.509765372625702
1090	 0.509926176650707
1091	 0.509969672506759
1092	 0.510193821390289
1093	 0.510259544389375
1094	 0.510410233021724
1095	 0.510783371552605
1096	 0.511058919761566
1097	 0.511403788601438
1098	 0.511674507931955
1099	 0.511943607251454
1100	 0.512135533310404
1101	 0.51223470433733
1102	 0.51238516151284
1103	 0.512545707078439
1104	 0.512646856778801
1105	 0.512777870882328
1106	 0.512941297477489
1107	 0.513136634517119
1108	 0.513350392313648
1109	 0.513577475613085
1110	 0.513823987956887
1111	 0.513958744153898
1112	 0.514032219743615
1113	 0.514157918712333
1114	 0.514264687011398
1115	 0.514424070632434
1116	 0.514655324747281
1117	 0.514821895779862
1118	 0.514955280697055
1119	 0.515104308741353
1120	 0.515220233433298
1121	 0.515387747075978
1122	 0.515522259264449
1123	 0.515712531824775
1124	 0.515903228350176
1125	 0.516023796263486
1126	 0.516213416216121
1127	 0.516406230124699
1128	 0.516458716677232
1129	 0.516530984052642
1130	 0.516632371053605
1131	 0.516697321515774
1132	 0.516823704532638
1133	 0.517049227368286
1134	 0.517167028026166
1135	 0.517274398068129
1136	 0.517345416679333
1137	 0.517332258802876
1138	 0.517370079087036
1139	 0.517411290969011
1140	 0.5174492158562
1141	 0.517501074604724
1142	 0.517608017189056
1143	 0.517751648230645
1144	 0.51780528641794
1145	 0.517833968489114
1146	 0.517820513233934
1147	 0.517836993307594
1148	 0.517805601081339
1149	 0.51783118608539
1150	 0.517903935404433
1151	 0.517963091571537
1152	 0.518025778316607
1153	 0.518096914972944
1154	 0.51816233603203
1155	 0.518253945273686
1156	 0.518358546757708
1157	 0.51848060385612
1158	 0.518602179525535
1159	 0.518739923748411
1160	 0.518834187503066
1161	 0.518973340912117
1162	 0.51915637081639
1163	 0.519378115135307
1164	 0.519597298410677
1165	 0.519863944728404
1166	 0.520081876708375
1167	 0.520287833520876
1168	 0.520488883496733
1169	 0.52066056249438
1170	 0.520877079545781
1171	 0.521132937798806
1172	 0.521346494505342
1173	 0.521573926880323
1174	 0.521768153307272
1175	 0.521952517933045
1176	 0.522049831614908
1177	 0.522158612221602
1178	 0.522318356194304
1179	 0.522455615769602
1180	 0.522634093049369
1181	 0.522763718448516
1182	 0.522867738009014
1183	 0.523011700486701
1184	 0.523144714950942
1185	 0.523287837515419
1186	 0.52347701926246
1187	 0.523639217495714
1188	 0.523784548110311
1189	 0.523925621193292
1190	 0.524076312682857
1191	 0.524211549421979
1192	 0.524292136249141
1193	 0.524420699339128
1194	 0.524581242011724
1195	 0.524727952541997
1196	 0.524878439930006
1197	 0.525080561814496
1198	 0.525242139567685
1199	 0.525378629726272
1200	 0.525545778847139
1201	 0.52573063432974
1202	 0.525889722222958
1203	 0.526051247081251
1204	 0.526201839821485
1205	 0.526329529577766
1206	 0.526468778102577
1207	 0.526628518021561
1208	 0.52675267408815
1209	 0.526839145369315
1210	 0.526953601376924
1211	 0.527069401945583
1212	 0.527180293430148
1213	 0.527292927012044
1214	 0.527430769484439
1215	 0.527564188135688
1216	 0.527668050517676
1217	 0.527748054740631
1218	 0.527808904126326
1219	 0.527892556188237
1220	 0.527956986933975
1221	 0.528020982376433
1222	 0.52810198765605
1223	 0.528187384403035
1224	 0.528242694443098
1225	 0.528326365850623
1226	 0.528474846946999
1227	 0.528558094081421
1228	 0.528576402634441
1229	 0.528658654070789
1230	 0.528756753319889
1231	 0.528844582828901
1232	 0.528994223651148
1233	 0.529091882494782
1234	 0.52914173812729
1235	 0.529180470557218
1236	 0.529240677159967
1237	 0.529282050528402
1238	 0.529366523660938
1239	 0.529481026718578
1240	 0.529586114930221
1241	 0.529715555628145
1242	 0.529821359018817
1243	 0.52991250660451
1244	 0.530017381889875
1245	 0.530116476053711
1246	 0.530226594021144
1247	 0.530362069859812
1248	 0.530471024069628
1249	 0.53057904832572
1250	 0.530670307602566
1251	 0.530739125499868
1252	 0.530807942168446
1253	 0.530852030270915
1254	 0.530918397857093
1255	 0.530992309491615
1256	 0.531069463800624
1257	 0.531151616969479
1258	 0.531251452882184
1259	 0.531337926128111
1260	 0.531419139276723
1261	 0.531502129424398
1262	 0.531577506734593
1263	 0.53167335555656
1264	 0.531809604745161
1265	 0.531872098254129
1266	 0.53190189101816
1267	 0.531949578444005
1268	 0.531946845412438
1269	 0.531975900421923
1270	 0.532046592190175
1271	 0.532100118894967
1272	 0.532172576451831
1273	 0.532191459228982
1274	 0.532166912167011
1275	 0.532166223431836
1276	 0.532102141364863
1277	 0.53209392980339
1278	 0.532119447570838
1279	 0.532214393006579
1280	 0.532237161965806
1281	 0.532265535231236
1282	 0.532270179638235
1283	 0.532247154600307
1284	 0.532205227435347
1285	 0.53215132129062
1286	 0.53209057883995
1287	 0.531966626047474
1288	 0.531915069439035
1289	 0.531925855289955
1290	 0.531875653423047
1291	 0.531836039314179
1292	 0.531771196658375
1293	 0.531625988421992
1294	 0.531545471495735
1295	 0.531512195568358
1296	 0.531449913768838
1297	 0.53138815918598
1298	 0.531338013670023
1299	 0.531273521952299
1300	 0.531222415584131
1301	 0.531170065154051
1302	 0.531133474186501
1303	 0.53110103995937
1304	 0.531076378266576
1305	 0.531011640875391
1306	 0.530939539123621
1307	 0.530881082178742
1308	 0.530781708840166
1309	 0.530731063776769
1310	 0.530751164439179
1311	 0.530696316561026
1312	 0.530630592816898
1313	 0.530531039021989
1314	 0.53032230329771
1315	 0.530247135626852
1316	 0.530237787643491
1317	 0.530193252805123
1318	 0.530314691466122
1319	 0.53022082139077
1320	 0.529907317721798
1321	 0.529720654874248
1322	 0.529445618317886
1323	 0.52926596280773
1324	 0.52925550407203
1325	 0.529165224328877
1326	 0.529062434009523
1327	 0.528975663574933
1328	 0.528895829998296
1329	 0.528834438450706
1330	 0.528715616110885
1331	 0.528604433218068
1332	 0.528437030686296
1333	 0.528187716409164
1334	 0.5279795933977
1335	 0.527768610418124
1336	 0.52756603095102
1337	 0.527377545144943
1338	 0.527167947689407
1339	 0.52695876531073
1340	 0.526728811124006
1341	 0.526462292363268
1342	 0.526221562264238
1343	 0.526044097281369
1344	 0.525760050914842
1345	 0.525425214152947
1346	 0.525086836575517
1347	 0.524691246101895
1348	 0.524269764667886
1349	 0.52382556587345
1350	 0.523397679529639
1351	 0.522919841167839
1352	 0.522436258369387
1353	 0.521993762851052
1354	 0.521572514076664
1355	 0.521163388064206
1356	 0.520764972160487
1357	 0.52037512642436
1358	 0.520013733422381
1359	 0.519628606830085
1360	 0.519239079765188
1361	 0.518864829354686
1362	 0.518495173278978
1363	 0.518116207916169
1364	 0.517762365980236
1365	 0.51735839178389
1366	 0.516966931358969
1367	 0.51649542083846
1368	 0.516003581420871
1369	 0.515426295915191
1370	 0.514804700333348
1371	 0.514073604193348
1372	 0.513291902095357
1373	 0.512389489720581
1374	 0.511434641172259
1375	 0.510293345359391
1376	 0.509025036416096
1377	 0.507612769236669
1378	 0.506014644328202
1379	 0.504266094547542
1380	 0.502376460852729
1381	 0.500303066573491
1382	 0.498050853882206
1383	 0.495707044198278
1384	 0.493366104682176
1385	 0.490875819451003
1386	 0.488588399389921
1387	 0.486258627808948
1388	 0.484240810595087
1389	 0.482318387261611
1390	 0.480694109154695
1391	 0.47931001451624
1392	 0.478095494699298
1393	 0.477175031381515
1394	 0.476213381023077
1395	 0.475497578805142
1396	 0.474577964262104
1397	 0.473713530459558
1398	 0.472604970915148
1399	 0.471341542725279
1400	 0.46999376421387
1401	 0.468498224934506
1402	 0.466905139286833
1403	 0.465209409515032
1404	 0.463428439668958
1405	 0.461501770081882
1406	 0.459541411653927
1407	 0.457449313983532
1408	 0.455411810532695
1409	 0.453350444398045
1410	 0.451429130006523
1411	 0.449703591826402
1412	 0.448253553279322
1413	 0.447220132954721
1414	 0.446560930277583
1415	 0.446438232741069
1416	 0.446681404431584
1417	 0.44715851505164
1418	 0.448092294334181
1419	 0.44895327328851
1420	 0.450094713962532
1421	 0.451059477857307
1422	 0.452070379667684
1423	 0.452983910926706
1424	 0.453851041643451
1425	 0.454662126352021
1426	 0.455435030192052
1427	 0.456149249313915
1428	 0.456770646061556
1429	 0.457415251961072
1430	 0.458004888381169
1431	 0.458628635963621
1432	 0.459276383816647
1433	 0.459903410875628
1434	 0.460528813970761
1435	 0.46114898082349
1436	 0.461777974645624
1437	 0.462366131156247
1438	 0.462940155541806
1439	 0.463492514441175
1440	 0.463995070851977
1441	 0.46450264124971
1442	 0.465019620875103
1443	 0.465507743394494
1444	 0.465991001344641
1445	 0.466436742180577
1446	 0.466844889578966
1447	 0.467198615491895
1448	 0.467557828850944
1449	 0.467885392475987
1450	 0.468153308659826
1451	 0.468435496623997
1452	 0.468704062091904
1453	 0.468947560701526
1454	 0.469211653967323
1455	 0.46947197267678
1456	 0.469669023860499
1457	 0.469808669694025
1458	 0.469947173894888
1459	 0.470017763983242
1460	 0.470185173920931
1461	 0.470362895740853
1462	 0.470586543748188
1463	 0.470900115988842
1464	 0.471156456685508
1465	 0.471403252654101
1466	 0.471661472182469
1467	 0.47189431947714
1468	 0.472183421574108
1469	 0.472482319021739
1470	 0.472834314923019
1471	 0.473240707235401
1472	 0.473658831654917
1473	 0.474120474537197
1474	 0.474590743964815
1475	 0.475082427369063
1476	 0.475576121470698
1477	 0.476086834341583
1478	 0.476595887210733
1479	 0.477114494616867
1480	 0.477631271717233
1481	 0.478159874498788
1482	 0.47867571332874
1483	 0.479202761244988
1484	 0.479691875052324
1485	 0.480134988432326
1486	 0.480604859786755
1487	 0.48106773966252
1488	 0.481529556414591
1489	 0.482010233414691
1490	 0.482481042688727
1491	 0.482941364149081
1492	 0.483395320947362
1493	 0.483827060418119
1494	 0.48427950621388
1495	 0.484741524541661
1496	 0.485142403278245
1497	 0.485573194931083
1498	 0.486050733806601
1499	 0.486449360919264
1500	 0.486837868134434
1501	 0.487251436940047
1502	 0.487608744519535
1503	 0.487969516408163
1504	 0.488362324074943
1505	 0.488726493413284
1506	 0.489099025719237
1507	 0.48948037016773
1508	 0.489890713716597
1509	 0.490268525840135
1510	 0.490641566149575
1511	 0.490980726900076
1512	 0.491286339361519
1513	 0.491629231101185
1514	 0.491950959534872
1515	 0.492310593798156
1516	 0.492731263967058
1517	 0.493075563865121
1518	 0.493398639727584
1519	 0.493727101618909
1520	 0.49400955478406
1521	 0.494338673589961
1522	 0.494726428581971
1523	 0.495027864699418
1524	 0.495287616833762
1525	 0.495572316231981
1526	 0.495822354757009
1527	 0.496079872422014
1528	 0.496372901368514
1529	 0.496632897761847
1530	 0.496847599776654
1531	 0.497089641015716
1532	 0.497338874204828
1533	 0.49759210585485
1534	 0.497868735757238
1535	 0.498104227835709
1536	 0.498314453933609
1537	 0.498548186707792
1538	 0.498769410520527
1539	 0.498992324547993
1540	 0.499236526881459
1541	 0.499465547079657
1542	 0.499678840420639
1543	 0.499889617619426
1544	 0.500104858108072
1545	 0.500309886896296
1546	 0.500483202862824
1547	 0.500687217923406
1548	 0.500908578883134
1549	 0.50113061086293
1550	 0.501401523815145
1551	 0.501605675925398
1552	 0.501753457714832
1553	 0.501930036568495
1554	 0.502080222829637
1555	 0.502239263710876
1556	 0.502436505656838
1557	 0.502608024469693
1558	 0.502741653246847
1559	 0.502901214912977
1560	 0.503072779722308
1561	 0.503238664499616
1562	 0.503442435224972
1563	 0.503596630673624
1564	 0.503691482604572
1565	 0.503822707970443
1566	 0.503928910458066
1567	 0.504067320709797
1568	 0.504268421474187
1569	 0.504444563508497
1570	 0.504632573116071
1571	 0.504787049966178
1572	 0.504913083453287
1573	 0.50503244995225
1574	 0.505120012657811
1575	 0.505221772707805
1576	 0.505311443526233
1577	 0.505416246319032
1578	 0.505526507216345
1579	 0.505666192089071
1580	 0.505799002082415
1581	 0.50591994581638
1582	 0.506064503853402
1583	 0.506161433036777
1584	 0.506252773987544
1585	 0.506378360445136
1586	 0.506485899232916
1587	 0.506572776411216
1588	 0.506652145766407
1589	 0.50674513017209
1590	 0.506861950053688
1591	 0.506948319338776
1592	 0.507011416930119
1593	 0.507089728364309
1594	 0.507140354676575
1595	 0.507215170421165
1596	 0.50731166662517
1597	 0.507412451114794
1598	 0.507510424028935
1599	 0.507585332428813
1600	 0.507704350895948
1601	 0.507802360718947
1602	 0.507881259764629
1603	 0.507980014783269
1604	 0.508076212253318
1605	 0.508194633795
1606	 0.508320564139698
1607	 0.508427832112598
1608	 0.508492756209716
1609	 0.508544685526285
1610	 0.508606435999103
1611	 0.508670766239265
1612	 0.508746346952077
1613	 0.508814632829994
1614	 0.508845371335825
1615	 0.508910806047729
1616	 0.509001222139024
1617	 0.509066218396142
1618	 0.5091554517995
1619	 0.509266730315176
1620	 0.509348256161852
1621	 0.509423086764987
1622	 0.509503505406216
1623	 0.509569635569762
1624	 0.509659818765078
1625	 0.50977617137549
1626	 0.509838091353112
1627	 0.509879245234703
1628	 0.509942420671949
1629	 0.509998688817344
1630	 0.510070191414632
1631	 0.510163447132472
1632	 0.510196032803419
1633	 0.510224502436996
1634	 0.510265682043964
1635	 0.510278276279905
1636	 0.510291634507852
1637	 0.510311672145869
1638	 0.510365717939658
1639	 0.510443000287165
1640	 0.510502193918538
1641	 0.510551513041123
1642	 0.510555623284409
1643	 0.510575099139763
1644	 0.510607211558509
1645	 0.510640965784879
1646	 0.510697971293818
1647	 0.510721051591933
1648	 0.510718772989184
1649	 0.51072589503565
1650	 0.510698167085588
1651	 0.510695481550703
1652	 0.510717063771527
1653	 0.510744034463254
1654	 0.510791984314513
1655	 0.510827407017255
1656	 0.510873121269138
1657	 0.510902031788475
1658	 0.510898269127169
1659	 0.51091680517912
1660	 0.510947132283597
1661	 0.510966561642616
1662	 0.511013028616011
1663	 0.511022191026186
1664	 0.510990366421383
1665	 0.510971119849688
1666	 0.510928437616739
1667	 0.510900902205849
1668	 0.51090690893248
1669	 0.510876979588441
1670	 0.510834226429906
1671	 0.510784161915259
1672	 0.510714504456902
1673	 0.510633502849135
1674	 0.510510465602012
1675	 0.510440890542975
1676	 0.510374931347495
1677	 0.510336135780862
1678	 0.510389493338274
1679	 0.510369954536116
1680	 0.510333959408084
1681	 0.510269105708962
1682	 0.510121489804312
1683	 0.51004181948046
1684	 0.509969680227302
1685	 0.509918420277038
1686	 0.509936213379177
1687	 0.509900342062645
1688	 0.509847156203039
1689	 0.509793765183053
1690	 0.509696244008566
1691	 0.509641299814709
1692	 0.509618129027733
1693	 0.509577720126925
1694	 0.509570273825386
1695	 0.509512485352738
1696	 0.509408412329836
1697	 0.509332430852704
1698	 0.509211199677019
1699	 0.509177462302389
1700	 0.509228102010695
1701	 0.509202108879022
1702	 0.509204876154756
1703	 0.50914692029956
1704	 0.509008972518612
1705	 0.508911620357328
1706	 0.508804587008723
1707	 0.508721072757895
1708	 0.508648710344074
1709	 0.508571066861833
1710	 0.508511519812251
1711	 0.508431410149103
1712	 0.508354117219543
1713	 0.508239995248448
1714	 0.508126714375277
1715	 0.507936568768847
1716	 0.507642725880407
1717	 0.507524078985194
1718	 0.507442765840233
1719	 0.507341227794139
1720	 0.507231136630265
1721	 0.507021498021003
1722	 0.50686458892771
1723	 0.506779519682409
1724	 0.506643873057549
1725	 0.506419255382067
1726	 0.506181529523998
1727	 0.505991746047479
1728	 0.505845407560618
1729	 0.505700353028171
1730	 0.505594837657374
1731	 0.505474159490785
1732	 0.505287448304309
1733	 0.505107159650223
1734	 0.504915770495954
1735	 0.504702511334582
1736	 0.504536523964972
1737	 0.504454871317207
1738	 0.504315707791486
1739	 0.504140714916037
1740	 0.503985470047598
1741	 0.503798830982095
1742	 0.503624624560389
1743	 0.503512554574283
1744	 0.503344880027514
1745	 0.503138995206912
1746	 0.502963875171299
1747	 0.502767108376577
1748	 0.502580493453358
1749	 0.502424291578253
1750	 0.502232246953721
1751	 0.502013902086353
1752	 0.501806408942953
1753	 0.50158740785256
1754	 0.501384217917558
1755	 0.501221359687889
1756	 0.500990344185532
1757	 0.5007075160825
1758	 0.500485490697763
1759	 0.500236745982568
1760	 0.5000979319304
1761	 0.49993434172992
1762	 0.499680679882737
1763	 0.499448383517047
1764	 0.499219489936534
1765	 0.499002928524813
1766	 0.498819469122446
1767	 0.498633917955352
1768	 0.498463419123198
1769	 0.498308467177854
1770	 0.498191518616056
1771	 0.498038839355449
1772	 0.497793487785777
1773	 0.497578484414115
1774	 0.497382022254077
1775	 0.497188812831243
1776	 0.49702016710945
1777	 0.496861011596538
1778	 0.496681735006417
1779	 0.496467158807511
1780	 0.496288633591813
1781	 0.496140625251524
1782	 0.496034562970014
1783	 0.495916707647401
1784	 0.495798755018426
1785	 0.495726951934362
1786	 0.495671951429459
1787	 0.495589763588677
1788	 0.495557329391251
1789	 0.495466660165779
1790	 0.495315153071405
1791	 0.495181259563796
1792	 0.495041255178527
1793	 0.49486216909541
1794	 0.494766274951804
1795	 0.494763049910038
1796	 0.494717780576696
1797	 0.49467691883641
1798	 0.494693811595497
1799	 0.494727849654029
1800	 0.494710489084908
1801	 0.494713282631645
1802	 0.494710052861976
1803	 0.494634671663563
1804	 0.494650071782746
1805	 0.494694707433794
1806	 0.494628311840979
1807	 0.494552585795207
1808	 0.494494302201887
1809	 0.494424959769481
1810	 0.494395677891682
1811	 0.494346153750871
1812	 0.494227655944787
1813	 0.494045550562857
1814	 0.493917402100519
1815	 0.493785795814165
1816	 0.493700015605224
1817	 0.493682822871212
1818	 0.493632070418981
1819	 0.493570719813388
1820	 0.493516179965477
1821	 0.493457343060602
1822	 0.493349718506642
1823	 0.493280864675048
1824	 0.493276773105712
1825	 0.493295584848268
1826	 0.493325519923272
1827	 0.493282703289213
1828	 0.493107740445063
1829	 0.492831098789813
1830	 0.492586457301798
1831	 0.494491736447325
1832	 0.494569391415975
1833	 0.494548831432874
1834	 0.494505763680477
1835	 0.494477628045893
1836	 0.494432015433424
1837	 0.494257107651149
1838	 0.494184460758197
1839	 0.494176484821305
1840	 0.494173680136286
1841	 0.494132958497062
1842	 0.494028324443066
1843	 0.493926192114778
1844	 0.493790159711819
1845	 0.493635633023413
1846	 0.493454026011948
1847	 0.493304666090713
1848	 0.493171038365349
1849	 0.492960771787482
1850	 0.492813096752815
1851	 0.492644067002765
1852	 0.492362468533548
1853	 0.492032048705114
1854	 0.49166505520674
1855	 0.49126069433083
1856	 0.490795357561635
1857	 0.49029424482269
1858	 0.489687419462151
1859	 0.489023757911542
1860	 0.488247733304298
1861	 0.487343251391494
1862	 0.486503422687598
1863	 0.485468062242258
1864	 0.484270329589447
1865	 0.482968467649195
1866	 0.481462379093147
1867	 0.47993041850315
1868	 0.478347643544773
1869	 0.476625165279999
1870	 0.474650706730327
1871	 0.472564199118129
1872	 0.470319229869094
1873	 0.467926344365826
1874	 0.465490575509323
1875	 0.462999602252315
1876	 0.460368917052707
1877	 0.457509127102094
1878	 0.454495841499339
1879	 0.451317664187898
1880	 0.44804548774894
1881	 0.444565281971094
1882	 0.440952743141595
1883	 0.437153790855467
1884	 0.433024141169872
1885	 0.428727582481669
1886	 0.424165429690422
1887	 0.419236713470021
1888	 0.414221221435115
1889	 0.409089583342438
1890	 0.403741582402821
1891	 0.398273506297904
1892	 0.392743318159978
1893	 0.387101301453803
1894	 0.381491854049285
1895	 0.375802974794058
1896	 0.37014993729895
1897	 0.364712265523642
1898	 0.359306357690598
1899	 0.354117288823388
1900	 0.349240144138194
1901	 0.344666368644174
1902	 0.340289240569867
1903	 0.33626174580818
1904	 0.332550309639044
1905	 0.329234087927192
1906	 0.326359425684006
1907	 0.323881482063736
1908	 0.321832282510979
1909	 0.320053245651737
1910	 0.318556178823674
1911	 0.317359056198603
1912	 0.316482924120588
1913	 0.315757100375001
1914	 0.315323829855976
1915	 0.315116514623595
1916	 0.315060708956961
1917	 0.315306189361963
1918	 0.315653291243971
1919	 0.316085695803056
1920	 0.316605283012517
1921	 0.317146353760513
1922	 0.317779762156216
1923	 0.318416303533255
1924	 0.319117977662427
1925	 0.319871923503438
1926	 0.32056950140158
1927	 0.321233468309324
1928	 0.322062079062241
1929	 0.322836773827236
1930	 0.32359677782916
1931	 0.324456331453866
1932	 0.325248721302131
1933	 0.326050834103972
1934	 0.326820940580018
1935	 0.32760430126959
1936	 0.328305437000967
1937	 0.329005657474999
1938	 0.329696716433122
1939	 0.330419225713572
1940	 0.33122160828934
1941	 0.332076401363904
1942	 0.332908603615778
1943	 0.333763224103416
1944	 0.334623951404523
1945	 0.335447420375742
1946	 0.336234544339202
1947	 0.337040110286854
1948	 0.337840415610218
1949	 0.338620286654983
1950	 0.339447784695407
1951	 0.340233749431426
1952	 0.341035042317067
1953	 0.341863569583232
1954	 0.342643980549683
1955	 0.343464389340585
1956	 0.344352872028449
1957	 0.345210767497921
1958	 0.346124381847156
1959	 0.347138361550547
1960	 0.348085327375947
1961	 0.349002612271101
1962	 0.349972865846365
1963	 0.350946464460543
1964	 0.351845221591849
1965	 0.35281199749052
1966	 0.353817483682044
1967	 0.35479500050526
1968	 0.355763632207538
1969	 0.356759993179531
1970	 0.357797121302924
1971	 0.358800737731114
1972	 0.359805293908067
1973	 0.360796970391863
1974	 0.361768491834408
1975	 0.362716843740511
1976	 0.363707136476161
1977	 0.364722752694331
1978	 0.365817276424025
1979	 0.36694186483657
1980	 0.368027201842264
1981	 0.369195191971514
1982	 0.370297960646314
1983	 0.371336294815342
1984	 0.372408044540376
1985	 0.373440200771224
1986	 0.37453540959527
1987	 0.375654416008325
1988	 0.376875344321641
1989	 0.378035155811844
1990	 0.379168541462862
1991	 0.380266489907277
1992	 0.381301097365126
1993	 0.38235389973499
1994	 0.383445456730125
1995	 0.384542179978164
1996	 0.385675064760224
1997	 0.38676868364491
1998	 0.387877251853757
1999	 0.388956043097217
2000	 0.390022016024189
2001	 0.39101359972456
2002	 0.392012226633276
2003	 0.39299811889599
2004	 0.394134046248151
2005	 0.395286723217865
2006	 0.396455183219498
2007	 0.397620692275425
2008	 0.398688486856809
2009	 0.399636967820107
2010	 0.400616633046262
2011	 0.401582620734919
2012	 0.402530479044037
2013	 0.403401467380469
2014	 0.404348346243617
2015	 0.405358145997707
2016	 0.406258165181111
2017	 0.407236490211146
2018	 0.408256987933879
2019	 0.409106323198715
2020	 0.409956076198854
2021	 0.410788378947179
2022	 0.411519561246996
2023	 0.41231557855537
2024	 0.413191194357377
2025	 0.4139679866456
2026	 0.414709174433372
2027	 0.415462556638182
2028	 0.416190539898132
2029	 0.416847544585866
2030	 0.417553339143626
2031	 0.418281643649438
2032	 0.419033586030789
2033	 0.419789511171205
2034	 0.420536893013379
2035	 0.421253172318917
2036	 0.421904915662398
2037	 0.422480622361864
2038	 0.42303457503167
2039	 0.423509787030677
2040	 0.424054462709878
2041	 0.424576287562235
2042	 0.425117961482648
2043	 0.425716003723121
2044	 0.42629016995874
2045	 0.426805946204982
2046	 0.427383090732742
2047	 0.427986997571895
2048	 0.428562981338355
2049	 0.429140356688006
2050	 0.429651913999696
2051	 0.430154259475082
2052	 0.430611374180675
2053	 0.431068752278212
2054	 0.431458352367384
2055	 0.431963441292394
2056	 0.432512887205697
2057	 0.433057346221976
2058	 0.433670272314062
2059	 0.434281003299534
2060	 0.434844047158749
2061	 0.435340296450049
2062	 0.435902052030524
2063	 0.436482010479874
2064	 0.436963638235581
2065	 0.437482488313147
2066	 0.437947106624385
2067	 0.438319115647651
2068	 0.438755520069913
2069	 0.439215413681701
2070	 0.439642598080085
2071	 0.440047108609221
2072	 0.440492205139919
2073	 0.44092740382442
2074	 0.441406814087609
2075	 0.441992434832723
2076	 0.442474399639209
2077	 0.44292360430392
2078	 0.443405401106993
2079	 0.443770868482759
2080	 0.444093762241393
2081	 0.444445962975578
2082	 0.444751198184911
2083	 0.445105334354632
2084	 0.445535950374735
2085	 0.445879715178448
2086	 0.446192945744409
2087	 0.446507043231888
2088	 0.446739405804439
2089	 0.447057362962048
2090	 0.447423888837555
2091	 0.447791925389586
2092	 0.448233937460878
2093	 0.448596399445189
2094	 0.448905347838395
2095	 0.449273419842393
2096	 0.449531030000214
2097	 0.449842811136956
2098	 0.450194709506484
2099	 0.450630501032214
2100	 0.450910886744194
2101	 0.45118041184555
2102	 0.451392144161781
2103	 0.451455392579746
2104	 0.451608232626009
2105	 0.451740330792109
2106	 0.451953545105043
2107	 0.45220385786892
2108	 0.452465500387135
2109	 0.452794706216074
2110	 0.453190250208265
2111	 0.453408632517283
2112	 0.453627809775066
2113	 0.453899726439595
2114	 0.454149817282847
2115	 0.454434676045958
2116	 0.454802357458472
2117	 0.455111426390782
2118	 0.455421564016853
2119	 0.455669631120282
2120	 0.45585638687117
2121	 0.456099739699249
2122	 0.456322176519151
2123	 0.456548117792644
2124	 0.456885035914209
2125	 0.457085464882236
2126	 0.45722405832291
2127	 0.457269209726357
2128	 0.457307769364287
2129	 0.457384579315294
2130	 0.457423736223964
2131	 0.457522276708286
2132	 0.45752537069564
2133	 0.45750046339457
2134	 0.457364471273085
2135	 0.457187540674232
2136	 0.456884606601782
2137	 0.456370309299383
2138	 0.455995878896215
2139	 0.455656066061923
2140	 0.455206378942413
2141	 0.454844889955145
2142	 0.454291594547335
2143	 0.45351582197469
2144	 0.452785832867483
2145	 0.451989545260239
2146	 0.451166245012582
2147	 0.450374798392891
2148	 0.449428209214075
2149	 0.448522325127543
2150	 0.447529850113066
2151	 0.446492813191638
2152	 0.44555289709906
2153	 0.444489760831037
2154	 0.443308324351242
2155	 0.442254358725064
2156	 0.441150141245568
2157	 0.44019068959885
2158	 0.439317059309142
2159	 0.438513747884251
2160	 0.437880229498845
2161	 0.437141635420972
2162	 0.436429219389546
2163	 0.435723496575268
2164	 0.434869915181962
2165	 0.434187625595507
2166	 0.433649545642524
2167	 0.433095036152465
2168	 0.432578467055301
2169	 0.432186605658243
2170	 0.43172848849604
2171	 0.431246574418841
2172	 0.430806539035571
2173	 0.430284051919637
2174	 0.429739609806526
2175	 0.429152451928395
2176	 0.42856397532366
2177	 0.427889802972864
2178	 0.427328559927387
2179	 0.426853433362137
2180	 0.426267663995587
2181	 0.425799568911688
2182	 0.425094313629555
2183	 0.424140613817966
2184	 0.423270181496739
2185	 0.422326152802346
2186	 0.421376412837486
2187	 0.420458928005692
2188	 0.419496004698445
2189	 0.418501978954533
2190	 0.417431943084126
2191	 0.416319779650561
2192	 0.415214959325921
2193	 0.414068635961068
2194	 0.412864736252131
2195	 0.411610529084049
2196	 0.410214815804114
2197	 0.408787005207879
2198	 0.407278797041726
2199	 0.405671013445278
2200	 0.403993233973842
2201	 0.402262169784581
2202	 0.400280941871494
2203	 0.398557518058032
2204	 0.396782130636088
2205	 0.395311716729081
2206	 0.393799346074969
2207	 0.392941924532435
2208	 0.392442927931082
2209	 0.392360145363526
2210	 0.392872737617462
2211	 0.393611325398593
2212	 0.394785504618305
2213	 0.396054485369794
2214	 0.397764373938524
2215	 0.399408657924762
2216	 0.401216332575003
2217	 0.402945403777845
2218	 0.404706179577009
2219	 0.406216844333045
2220	 0.407412666263586
2221	 0.408354733751079
2222	 0.409200554703475
2223	 0.409842062961563
2224	 0.410416663339231
2225	 0.410963159699414
2226	 0.411301065356824
2227	 0.411406680204641
2228	 0.411555585036275
2229	 0.411601330100327
2230	 0.41161407722174
2231	 0.411573751400296
2232	 0.411474755654194
2233	 0.411243320647706
2234	 0.411095139972939
2235	 0.410986197224457
2236	 0.410811995082588
2237	 0.410680945349976
2238	 0.410438470573158
2239	 0.410004247399091
2240	 0.409708300061343
2241	 0.409379197846377
2242	 0.409172272646978
2243	 0.409139720011519
2244	 0.409048569819944
2245	 0.408993182009341
2246	 0.408894459875339
2247	 0.408896414018521
2248	 0.408704538994273
2249	 0.40867268489726
2250	 0.408705176191531
2251	 0.40863936164903
2252	 0.408808257854959
2253	 0.40897701665275
2254	 0.409017090303898
2255	 0.408925100754001
2256	 0.40896082306264
2257	 0.409073843667444
2258	 0.409218386013893
2259	 0.409300155813927
2260	 0.409500585069278
2261	 0.409553100850482
2262	 0.409418395067536
2263	 0.40942013204585
2264	 0.40954056620054
2265	 0.409504559010715
2266	 0.409458215074645
2267	 0.409279832358147
2268	 0.408958912765533
2269	 0.408654200961702
2270	 0.408157069311374
2271	 0.407877554918668
2272	 0.407783598840184
2273	 0.40751395890056
2274	 0.407399863131284
2275	 0.40696614687458
2276	 0.406171961336586
2277	 0.405486297549825
2278	 0.404764840465815
2279	 0.403979066092569
2280	 0.403112727733754
2281	 0.40231561613244
2282	 0.401496810005625
2283	 0.400598361570708
2284	 0.399898778350756
2285	 0.399075677271252
2286	 0.398028669818096
2287	 0.396847042247896
2288	 0.395591230273137
2289	 0.394606313209703
2290	 0.393988811743371
2291	 0.393551814733525
2292	 0.393087288967297
2293	 0.392596286589502
2294	 0.392206658375492
2295	 0.391895445296713
2296	 0.391571956010932
2297	 0.391287692904362
2298	 0.390852640407404
2299	 0.390123411492367
2300	 0.389456606454411
2301	 0.388853554463149
2302	 0.388086124926371
2303	 0.387255343131219
2304	 0.386259042755624
2305	 0.385031842970664
2306	 0.383931178944756
2307	 0.382695131112442
2308	 0.381606071113145
2309	 0.380620948181975
2310	 0.379711484941928
2311	 0.378718110086771
2312	 0.378047684485241
2313	 0.377617270959562
2314	 0.377271347272274
2315	 0.377115012383657
2316	 0.377229220701442
2317	 0.377459660325986
2318	 0.37788113321778
2319	 0.378781857943868
2320	 0.379348266043647
2321	 0.379924345131534
2322	 0.380499378155475
2323	 0.381042033609538
2324	 0.381420441682294
2325	 0.38173674774895
2326	 0.381963132087393
2327	 0.382031820087693
2328	 0.382049694680179
2329	 0.382069526088554
2330	 0.38194153980327
2331	 0.381611218620192
2332	 0.381311861106105
2333	 0.38088969116778
2334	 0.380500910638229
2335	 0.380113119867232
2336	 0.379708014101204
2337	 0.37931319090681
2338	 0.37898786988811
2339	 0.378796258196965
2340	 0.378288677330828
2341	 0.377670066368411
2342	 0.376904605705658
2343	 0.376058235309835
2344	 0.375420963008526
2345	 0.374999481568775
2346	 0.374595486675131
2347	 0.373992678784575
2348	 0.373533210395795
2349	 0.373123937886758
2350	 0.372527816932726
2351	 0.372045414298251
2352	 0.371655564799406
2353	 0.371288515666912
2354	 0.370757522448597
2355	 0.370218914035785
2356	 0.369718495853327
2357	 0.368986578092754
2358	 0.368526146734526
2359	 0.368275922646566
2360	 0.367804571024705
2361	 0.367404478336468
2362	 0.366783780680424
2363	 0.365808483911256
2364	 0.365074088456046
2365	 0.36447388798616
2366	 0.363976890526921
2367	 0.363708727002811
2368	 0.363255419841604
2369	 0.3625686898574
2370	 0.362010687675802
2371	 0.36130820516815
2372	 0.360403724181233
2373	 0.359375215429031
2374	 0.358140826048492
2375	 0.357383850374144
2376	 0.356814717726648
2377	 0.356085357140954
2378	 0.355482785655509
2379	 0.354471934400768
2380	 0.353038849182332
2381	 0.352000370513042
2382	 0.351655918672689
2383	 0.351366807802525
2384	 0.35129034186342
2385	 0.351391846317736
2386	 0.350880544857949
2387	 0.350135563231612
2388	 0.349440964414004
2389	 0.348741090468889
2390	 0.347901141837141
2391	 0.347319843246221
2392	 0.347334737266982
2393	 0.347180294589559
2394	 0.347255512225878
2395	 0.347540062048529
2396	 0.347166496997707
2397	 0.3468402395234
2398	 0.346545207546475
2399	 0.345990988128965
2400	 0.345750349756281
2401	 0.345347786171837
2402	 0.344549532675529
2403	 0.343663493368462
2404	 0.342697460667476
2405	 0.342052310847935
2406	 0.341904693134379
2407	 0.342123098833818
2408	 0.342140789189701
2409	 0.34160763062776
2410	 0.341119831774454
2411	 0.34019252420661
2412	 0.339294003828223
2413	 0.33918573737345
2414	 0.338703450120357
2415	 0.338115306262924
2416	 0.33743836928948
2417	 0.33616932950501
2418	 0.33494228522274
2419	 0.333994880533382
2420	 0.33341646552979
2421	 0.333210381532327
2422	 0.333073501368204
2423	 0.332553469180254
2424	 0.331722634197164
2425	 0.330648819863191
2426	 0.329428387700746
2427	 0.327723399679957
2428	 0.32664212182592
2429	 0.32569973971581
2430	 0.324857301472308
2431	 0.324363784770017
2432	 0.323704053372074
2433	 0.323035831589852
2434	 0.321951665841735
2435	 0.320715619372478
2436	 0.319611292582543
2437	 0.318486233944966
2438	 0.317381145877333
2439	 0.316664023798447
2440	 0.316440294257882
2441	 0.315252813841953
2442	 0.314421794348112
2443	 0.313695565823276
2444	 0.312463474404899
2445	 0.311316773180439
2446	 0.31021144409652
2447	 0.309154183363514
2448	 0.308373899383265
2449	 0.307861378097163
2450	 0.307363562668213
2451	 0.306655021047418
2452	 0.306000349769923
2453	 0.305489249260873
2454	 0.304698607380891
2455	 0.303827508202038
2456	 0.302761815826777
2457	 0.301114604715258
2458	 0.299828542558589
2459	 0.299306072362691
2460	 0.299341773838616
2461	 0.299363219820632
2462	 0.298891091267587
2463	 0.298461753127112
2464	 0.297626002526096
2465	 0.296845437169831
2466	 0.296003595274388
2467	 0.295077585773373
2468	 0.294808394623173
2469	 0.293925506600184
2470	 0.293608216003332
2471	 0.293415361436564
2472	 0.291818974539603
2473	 0.290727943870036
2474	 0.290529079239601
2475	 0.290265193543749
2476	 0.289828292775959
2477	 0.289280923898482
2478	 0.287861926922622
2479	 0.286156653717329
2480	 0.285624352819941
2481	 0.285218720243755
2482	 0.284444816929204
2483	 0.284654604014292
2484	 0.283177137786944
2485	 0.281251341508205
2486	 0.280538301142843
2487	 0.280001604026402
2488	 0.280869686233139
2489	 0.282072702266843
2490	 0.281273260716054
2491	 0.279416476205985
2492	 0.278259186150439
2493	 0.277460906862362
2494	 0.276949047295967
2495	 0.276335666271997
2496	 0.275260955715154
2497	 0.274099017295761
2498	 0.273837664460789
2499	 0.275505788635576
2500	 0.275989543925871
