Wavelength	signature0029.asd
350	 0.286458232891926
351	 0.291850083591012
352	 0.287428733764074
353	 0.281037849197487
354	 0.283951496180034
355	 0.279383126099248
356	 0.283439607259928
357	 0.293618710518255
358	 0.29416677009471
359	 0.292722123000731
360	 0.288822955582393
361	 0.28431272376028
362	 0.284652474127712
363	 0.288099716026282
364	 0.289490461308098
365	 0.287040863708542
366	 0.287976744912581
367	 0.293570334668931
368	 0.294277539987831
369	 0.28396014614988
370	 0.28698875697404
371	 0.289924427014929
372	 0.290167044460319
373	 0.291859328973449
374	 0.287866721122253
375	 0.286214708893333
376	 0.289744827688575
377	 0.293617352607322
378	 0.291269194588739
379	 0.292022631093178
380	 0.299038072008022
381	 0.296127933264166
382	 0.293841126896776
383	 0.294450891452315
384	 0.296929162219282
385	 0.298031150110653
386	 0.298915815487549
387	 0.298809753973281
388	 0.296434358148619
389	 0.295737051847533
390	 0.295141468864817
391	 0.294845340127643
392	 0.29732495008476
393	 0.298249091587376
394	 0.299173170000501
395	 0.301019241312659
396	 0.301097506719125
397	 0.299966284090001
398	 0.299288268642406
399	 0.300235811558029
400	 0.300691014496716
401	 0.300459911353877
402	 0.300781214654936
403	 0.303090372360652
404	 0.303074905252516
405	 0.302473846469813
406	 0.302627173862765
407	 0.303474300117679
408	 0.304062596507798
409	 0.304676571542476
410	 0.305460571033737
411	 0.305450100117445
412	 0.305458036248693
413	 0.305734804816402
414	 0.306253753341797
415	 0.306973314680996
416	 0.307056490804431
417	 0.306687563536017
418	 0.306886306120615
419	 0.3079763420016
420	 0.30873022296146
421	 0.308744046769313
422	 0.309434300460447
423	 0.309817745891212
424	 0.310092565219296
425	 0.31057109993447
426	 0.310680929069802
427	 0.311326796546465
428	 0.312154004176521
429	 0.312182520468999
430	 0.312114752415288
431	 0.312609451746223
432	 0.313477508317576
433	 0.313483229712932
434	 0.313700392974231
435	 0.314021202636657
436	 0.314277966932878
437	 0.314877514102175
438	 0.316235191953837
439	 0.317425652496192
440	 0.317283477242423
441	 0.317485886693492
442	 0.318316323860527
443	 0.31926350377261
444	 0.319196504411096
445	 0.320042301359915
446	 0.320662270712672
447	 0.320448265711313
448	 0.32166512008957
449	 0.32220736045284
450	 0.322421906074306
451	 0.323299058687625
452	 0.323667381695302
453	 0.324051645831513
454	 0.324618969204571
455	 0.325103223158943
456	 0.325208200760603
457	 0.325631256133976
458	 0.326537234755098
459	 0.326585842759429
460	 0.326761087654837
461	 0.327154614292822
462	 0.327618576085689
463	 0.328451581420337
464	 0.32903967131197
465	 0.329272798446572
466	 0.329509700869263
467	 0.329971812832036
468	 0.330511440134466
469	 0.330908022682049
470	 0.330869678801777
471	 0.331559191818633
472	 0.332237581658758
473	 0.332056788338047
474	 0.332656119852618
475	 0.333137677357798
476	 0.333287328961417
477	 0.333509566752182
478	 0.334190044059923
479	 0.33468872464695
480	 0.334810770026798
481	 0.335453661008501
482	 0.335799260201558
483	 0.336127097142345
484	 0.336787588167414
485	 0.33688409328524
486	 0.337373236144777
487	 0.338121778180286
488	 0.338242553729364
489	 0.338685122913682
490	 0.339207368129193
491	 0.339643240297524
492	 0.340295144602571
493	 0.340760500388463
494	 0.341094601145088
495	 0.341486903216785
496	 0.342000301430532
497	 0.342650610527178
498	 0.34317284797391
499	 0.343190330218672
500	 0.343668550074187
501	 0.344406412834488
502	 0.345128452062582
503	 0.345789908757101
504	 0.346233833578547
505	 0.34656685234161
506	 0.346946796112894
507	 0.347279608351069
508	 0.347714064088322
509	 0.34823662524831
510	 0.348703617031921
511	 0.349227072051111
512	 0.349626075002721
513	 0.349899358116175
514	 0.350503213614265
515	 0.351218328489051
516	 0.351658106969067
517	 0.351648768584812
518	 0.352403613950888
519	 0.353052061471183
520	 0.353443538234405
521	 0.35415535707173
522	 0.354533170161916
523	 0.354893854413638
524	 0.355489502133011
525	 0.356025298400314
526	 0.356524126806589
527	 0.357002711175232
528	 0.357488602441398
529	 0.35802835312899
530	 0.358587173982154
531	 0.359129318836936
532	 0.359631384519983
533	 0.360307439757665
534	 0.360900209136384
535	 0.36128811342274
536	 0.361974835610211
537	 0.362679833733387
538	 0.363293381929469
539	 0.363820860559783
540	 0.36446585571267
541	 0.365060630435281
542	 0.365620564137424
543	 0.366423505446895
544	 0.367164420894206
545	 0.367960586786803
546	 0.368919301996005
547	 0.369780204773937
548	 0.370698270111975
549	 0.371727055663781
550	 0.372848342387512
551	 0.373999469445712
552	 0.375230607994854
553	 0.376544377575496
554	 0.377848751836172
555	 0.379168607043429
556	 0.380586370057578
557	 0.38211851619528
558	 0.383453179716646
559	 0.384677418240065
560	 0.385867517723765
561	 0.387083531480746
562	 0.388355423641151
563	 0.389737537571433
564	 0.391247115587372
565	 0.392831582104666
566	 0.394520863233374
567	 0.396195041176273
568	 0.397716465389997
569	 0.399145661644298
570	 0.400405906568536
571	 0.401633389905605
572	 0.403148383253443
573	 0.404574686101538
574	 0.406029448296078
575	 0.40762192472743
576	 0.409197702619644
577	 0.410761934381464
578	 0.412216106500293
579	 0.413458757222947
580	 0.414655273544856
581	 0.415861670902323
582	 0.417112475514842
583	 0.418417858363803
584	 0.419675309939382
585	 0.420939093788568
586	 0.422207156170792
587	 0.423176316660833
588	 0.424271550100605
589	 0.425438934059698
590	 0.426391758582098
591	 0.427344595284199
592	 0.428465353725445
593	 0.429705120212527
594	 0.430702459453766
595	 0.431655495942722
596	 0.432583465419627
597	 0.433466481258033
598	 0.434338987024918
599	 0.435191893055511
600	 0.436025028998251
601	 0.436839780165697
602	 0.437633131772583
603	 0.438519564642485
604	 0.439432801485779
605	 0.439920102745088
606	 0.440457839248587
607	 0.441175126808971
608	 0.441977062483618
609	 0.442327184577007
610	 0.442684281364955
611	 0.443294554977233
612	 0.444126334780301
613	 0.444563799832993
614	 0.444930830420631
615	 0.445500039979363
616	 0.445995520196678
617	 0.446514998985618
618	 0.44701323706711
619	 0.447428243262774
620	 0.447928325906013
621	 0.448286139361989
622	 0.448552222532312
623	 0.449099013555253
624	 0.449708583934082
625	 0.450119037468046
626	 0.450289462439123
627	 0.450816243349467
628	 0.451385998188385
629	 0.451806454303488
630	 0.452010863814796
631	 0.452371294024482
632	 0.452867386128133
633	 0.453376759690248
634	 0.453701579710827
635	 0.454114832949183
636	 0.454596356101672
637	 0.455061560039604
638	 0.455478988090575
639	 0.455924772732904
640	 0.456376987780274
641	 0.456766539112538
642	 0.457222219472344
643	 0.457705861507164
644	 0.458162348029337
645	 0.458543941904142
646	 0.458911006551042
647	 0.459315850877195
648	 0.459767982069674
649	 0.460122640502636
650	 0.460509923935802
651	 0.460936643749717
652	 0.46131803625621
653	 0.461683684654381
654	 0.462138823657677
655	 0.46265787858554
656	 0.462938329847732
657	 0.463337994255922
658	 0.463770387318051
659	 0.464067998449825
660	 0.464409577510726
661	 0.464904698227949
662	 0.465466675252834
663	 0.465858730157581
664	 0.46617793125083
665	 0.466552360030379
666	 0.467020224794756
667	 0.467418542918514
668	 0.467799831396963
669	 0.468260961069942
670	 0.468851033596516
671	 0.46927091558153
672	 0.469681245589099
673	 0.470136370566366
674	 0.470566700129336
675	 0.471020711001613
676	 0.471410986907175
677	 0.471735927700172
678	 0.472259971446144
679	 0.472717211716685
680	 0.473152565171224
681	 0.473699570595835
682	 0.474241187998515
683	 0.474749198192799
684	 0.475243375989106
685	 0.475782739839325
686	 0.476311598260377
687	 0.476847655050062
688	 0.477390321656979
689	 0.477846881451036
690	 0.478380992096919
691	 0.478929371013649
692	 0.479386436948372
693	 0.480014056793026
694	 0.480653540083688
695	 0.481216818274728
696	 0.481727456485204
697	 0.482288517554128
698	 0.482888471301113
699	 0.483478745617628
700	 0.483989553107543
701	 0.484450541222615
702	 0.484920499290036
703	 0.485446283657832
704	 0.485911492376885
705	 0.486432960473273
706	 0.486975007619247
707	 0.487344432449837
708	 0.487800209158984
709	 0.488262961762999
710	 0.488674493802129
711	 0.489205896443033
712	 0.489650728380412
713	 0.490015517935975
714	 0.490403437936955
715	 0.490931948364778
716	 0.491365779736767
717	 0.491706764520693
718	 0.492190863053504
719	 0.492534897962909
720	 0.49286731649833
721	 0.493278473692834
722	 0.493595939423773
723	 0.493965629883987
724	 0.494368673281665
725	 0.494735834943079
726	 0.4950784710904
727	 0.495376172787845
728	 0.49567771528538
729	 0.496073563322317
730	 0.49635227395041
731	 0.496602127440036
732	 0.496887209024587
733	 0.497123236526716
734	 0.49739676836681
735	 0.497644975831556
736	 0.497828051660426
737	 0.498233627856367
738	 0.498514680003151
739	 0.498632199790711
740	 0.498785495833288
741	 0.498965141927209
742	 0.499164235656741
743	 0.49935024590749
744	 0.499453533073761
745	 0.499673135128189
746	 0.499959487203417
747	 0.500217156643881
748	 0.500461882601116
749	 0.500683303401914
750	 0.500861009017403
751	 0.500982376589457
752	 0.501120348350234
753	 0.501293181812794
754	 0.501473906936637
755	 0.501592487294483
756	 0.501684064636904
757	 0.501787376577373
758	 0.501908656664722
759	 0.50197035283716
760	 0.502000792466593
761	 0.502028653530453
762	 0.502078956104453
763	 0.502144715116776
764	 0.502225228873212
765	 0.502285832187018
766	 0.502278792103699
767	 0.502389611750211
768	 0.502422495300856
769	 0.502332353522615
770	 0.502441613353559
771	 0.502538259714601
772	 0.502558179373462
773	 0.502506762666322
774	 0.502464212679158
775	 0.502493747299825
776	 0.502548987045564
777	 0.502529074964418
778	 0.502444077339271
779	 0.502412941623221
780	 0.502446344213338
781	 0.502425400899272
782	 0.502427909568895
783	 0.502419464645566
784	 0.502373676248986
785	 0.502325732238084
786	 0.502310715948444
787	 0.50225511721979
788	 0.502111306148949
789	 0.502112268459999
790	 0.502119894451744
791	 0.502062427912562
792	 0.501942429650953
793	 0.501899272888677
794	 0.501844661737517
795	 0.50173517828294
796	 0.501621053028545
797	 0.501634234090271
798	 0.501623259368557
799	 0.501482494832803
800	 0.501370827388252
801	 0.501234852353225
802	 0.501077750453719
803	 0.500937589642585
804	 0.500927393980061
805	 0.500878531140388
806	 0.500752640516753
807	 0.500608123765057
808	 0.500434865000897
809	 0.500299955590563
810	 0.500195889374345
811	 0.500025492392626
812	 0.499932582384319
813	 0.499834284211817
814	 0.499693066501946
815	 0.499673606660059
816	 0.499575186570108
817	 0.499417203168444
818	 0.499292071087688
819	 0.499285652980008
820	 0.499143726554895
821	 0.498919918152525
822	 0.498815781381776
823	 0.498725829007383
824	 0.498693294203512
825	 0.498671083922557
826	 0.498530466202377
827	 0.498324146973
828	 0.498253074871698
829	 0.49829884081596
830	 0.498073805614824
831	 0.497979084198236
832	 0.49794354736051
833	 0.497828846735985
834	 0.49763555668101
835	 0.497533716981843
836	 0.497487877108193
837	 0.497390980281359
838	 0.497215987553983
839	 0.497082272184059
840	 0.497013930493462
841	 0.496959426402775
842	 0.496835449390286
843	 0.496781900438563
844	 0.496764333423075
845	 0.496586712361135
846	 0.496552449587862
847	 0.496512787207686
848	 0.496373060509029
849	 0.496234036564769
850	 0.496156247320582
851	 0.496060428810859
852	 0.495918433510606
853	 0.495921733104603
854	 0.495837314856376
855	 0.495678682479626
856	 0.495534949107047
857	 0.495430583488181
858	 0.495372071888265
859	 0.495352487410929
860	 0.495349372764994
861	 0.495311290810889
862	 0.495255242352363
863	 0.495185479850789
864	 0.495106830139234
865	 0.495147776585851
866	 0.495081305601557
867	 0.494886228940335
868	 0.494792598761985
869	 0.494761577094315
870	 0.494741763441587
871	 0.49470714504572
872	 0.494678860080244
873	 0.494572638909057
874	 0.494505036677814
875	 0.49457127759302
876	 0.494733141350234
877	 0.494702906971947
878	 0.494611933755818
879	 0.494638791810953
880	 0.494694286248138
881	 0.49463043715714
882	 0.494544085168603
883	 0.494584756123001
884	 0.494686751253619
885	 0.494704260347503
886	 0.494643286515022
887	 0.494616537019962
888	 0.494809195231023
889	 0.494849968378098
890	 0.494777708979258
891	 0.494889199850985
892	 0.494991165779759
893	 0.495009134427157
894	 0.495002884528239
895	 0.495123657189002
896	 0.495313082078009
897	 0.495381537978017
898	 0.495303896246729
899	 0.495257307771631
900	 0.495302508267836
901	 0.495464055886607
902	 0.495624853205922
903	 0.495526925713158
904	 0.495604724945074
905	 0.495634264239707
906	 0.495520301212959
907	 0.495592654701592
908	 0.495626996968944
909	 0.495699819562086
910	 0.495861680418962
911	 0.495983863795886
912	 0.49586506433658
913	 0.495823964153899
914	 0.496069503701938
915	 0.496207645938959
916	 0.496282871622844
917	 0.496324551993303
918	 0.496398535831366
919	 0.496659255207497
920	 0.496867077103285
921	 0.496922485939812
922	 0.496886784741359
923	 0.497148642720048
924	 0.497262445691674
925	 0.497299132505507
926	 0.497445345415189
927	 0.497574766688467
928	 0.497575685304324
929	 0.497522295929684
930	 0.497524910435499
931	 0.497495537591823
932	 0.497504029086562
933	 0.497564916085366
934	 0.497632033165533
935	 0.497559942853405
936	 0.497319880989646
937	 0.497030163051596
938	 0.496836561988169
939	 0.496689674045573
940	 0.496615830801209
941	 0.496449844381059
942	 0.496084620962596
943	 0.496036882552126
944	 0.495741664566317
945	 0.495468113397439
946	 0.495636823026548
947	 0.495486858958699
948	 0.495274098096969
949	 0.495261404068591
950	 0.495544895064588
951	 0.495636193844319
952	 0.495616268608948
953	 0.495758063574786
954	 0.496228728522867
955	 0.496472401674942
956	 0.496830792982416
957	 0.496942757925425
958	 0.49651301439984
959	 0.496623804983055
960	 0.496636565235432
961	 0.496470947438591
962	 0.496314124797098
963	 0.496411509086725
964	 0.496265860427585
965	 0.496255180201922
966	 0.496789310108498
967	 0.49730178686487
968	 0.498260307916956
969	 0.499217432751242
970	 0.49996490529888
971	 0.501750496025272
972	 0.50272685096784
973	 0.503603115703048
974	 0.50510781515391
975	 0.506220321110014
976	 0.506767058680017
977	 0.507082935551966
978	 0.50764806608358
979	 0.508813382628177
980	 0.509279471475591
981	 0.509612502931819
982	 0.510287834057198
983	 0.510916512684088
984	 0.511200892258374
985	 0.511511551442441
986	 0.512017472260045
987	 0.512477417897068
988	 0.513148782388189
989	 0.51349297238535
990	 0.51373395852263
991	 0.514670332141628
992	 0.51449977212394
993	 0.514836530183786
994	 0.515645684177499
995	 0.515651727653288
996	 0.516092854250132
997	 0.516778154310817
998	 0.517364420066311
999	 0.517649277448953
1000	 0.518200640323092
1001	 0.518527832183116
1002	 0.518693191274258
1003	 0.51887828785817
1004	 0.51900647857579
1005	 0.519180808460875
1006	 0.519529387953878
1007	 0.51976476432631
1008	 0.520003185351783
1009	 0.520315731550703
1010	 0.520700420976981
1011	 0.520993001571819
1012	 0.521270202941321
1013	 0.521517627706658
1014	 0.521737939966781
1015	 0.521965160321245
1016	 0.522073848307428
1017	 0.52208866384646
1018	 0.522147784582717
1019	 0.522275841114819
1020	 0.522594999545754
1021	 0.523069894818644
1022	 0.523196299758859
1023	 0.523351254465583
1024	 0.523622010263112
1025	 0.523950275785345
1026	 0.524005291889954
1027	 0.52433931676599
1028	 0.524611319202895
1029	 0.524540304601176
1030	 0.52474416661955
1031	 0.524848179597309
1032	 0.524960260467368
1033	 0.525308772775729
1034	 0.525481816693082
1035	 0.525678260851849
1036	 0.525889301194105
1037	 0.525841386908488
1038	 0.525908674571045
1039	 0.525989542810257
1040	 0.5262200758134
1041	 0.526355660005653
1042	 0.526609784187164
1043	 0.526905249877323
1044	 0.527138644843814
1045	 0.527378002448911
1046	 0.527532051447358
1047	 0.527590813546488
1048	 0.527720560356374
1049	 0.527980808015225
1050	 0.528100656814105
1051	 0.52821239015134
1052	 0.528388718323203
1053	 0.528498685503925
1054	 0.528489234908192
1055	 0.528616409658326
1056	 0.528797263069376
1057	 0.528820549173087
1058	 0.528893779678631
1059	 0.528962362365895
1060	 0.528886657138609
1061	 0.52915062963738
1062	 0.529639999504499
1063	 0.529939358773923
1064	 0.530287003147905
1065	 0.530476938305963
1066	 0.530395305085172
1067	 0.530382560273279
1068	 0.530424494849669
1069	 0.530531022883364
1070	 0.53066607529812
1071	 0.530840975621741
1072	 0.530979108405058
1073	 0.531148501461478
1074	 0.531312710539992
1075	 0.531428111801926
1076	 0.53158076106512
1077	 0.531751851957328
1078	 0.531877357500636
1079	 0.532016544727392
1080	 0.532107432681755
1081	 0.532188288365112
1082	 0.532329300644732
1083	 0.53245542324377
1084	 0.532569231403482
1085	 0.532691741533139
1086	 0.532863286399744
1087	 0.532961112479904
1088	 0.533020560643136
1089	 0.533061379530562
1090	 0.533056640472198
1091	 0.533074117457052
1092	 0.533242661668978
1093	 0.533416817202856
1094	 0.533514937678678
1095	 0.533585641354542
1096	 0.533647471805142
1097	 0.533659054681251
1098	 0.533731899219709
1099	 0.533930919762399
1100	 0.534066369200319
1101	 0.534132237091135
1102	 0.534239942340697
1103	 0.534398316645249
1104	 0.53450762564307
1105	 0.534527994847666
1106	 0.534640074333191
1107	 0.534721659813567
1108	 0.534744272590478
1109	 0.534794262769759
1110	 0.534816624541172
1111	 0.5349080111019
1112	 0.534967262289075
1113	 0.535006173403236
1114	 0.53506873051872
1115	 0.535146502927492
1116	 0.535187322953742
1117	 0.535224419190486
1118	 0.535312496016177
1119	 0.535359091348008
1120	 0.535345261131237
1121	 0.535341204239242
1122	 0.535468492613245
1123	 0.535494594254039
1124	 0.535498571082445
1125	 0.535575940022618
1126	 0.535560625595276
1127	 0.53550871470549
1128	 0.535465020876719
1129	 0.535445510943634
1130	 0.535400510391265
1131	 0.535342263135211
1132	 0.535283526237841
1133	 0.535221867699849
1134	 0.535135224076644
1135	 0.535060388361717
1136	 0.534934391246053
1137	 0.534761991673405
1138	 0.534598505546656
1139	 0.534413499432224
1140	 0.534223480744622
1141	 0.534031547274629
1142	 0.53377434644094
1143	 0.533474087205986
1144	 0.533194257417414
1145	 0.532885468494983
1146	 0.532557397903975
1147	 0.532218361711445
1148	 0.531857508583419
1149	 0.531492399309795
1150	 0.531079831141652
1151	 0.530750440467258
1152	 0.530496087891288
1153	 0.530163426912632
1154	 0.529791701661705
1155	 0.529491078041981
1156	 0.529164921585907
1157	 0.528832810437296
1158	 0.528704725068072
1159	 0.528685090625515
1160	 0.528662996676143
1161	 0.528737663557459
1162	 0.528796712703107
1163	 0.528876612351999
1164	 0.528957127908911
1165	 0.529047624915859
1166	 0.529173187663217
1167	 0.529310948787288
1168	 0.529470441465379
1169	 0.52966472786393
1170	 0.529878016850104
1171	 0.53013821322474
1172	 0.530361384854252
1173	 0.530602082368133
1174	 0.530808090791394
1175	 0.530993450369948
1176	 0.531141332120668
1177	 0.531241875881383
1178	 0.531379425760142
1179	 0.53145923036217
1180	 0.531536310184348
1181	 0.531624261886132
1182	 0.531729884190287
1183	 0.531802850792512
1184	 0.531865131042644
1185	 0.53191781615321
1186	 0.531946631274944
1187	 0.531982534907334
1188	 0.532026748340418
1189	 0.532054824108147
1190	 0.532085546014015
1191	 0.532089567428591
1192	 0.532033617234138
1193	 0.532031366373635
1194	 0.532037276968872
1195	 0.532065050219058
1196	 0.532084015734393
1197	 0.532115161914343
1198	 0.532109616934877
1199	 0.532044185350915
1200	 0.532029462237671
1201	 0.532035731223179
1202	 0.532032583799763
1203	 0.532027411269214
1204	 0.532042036319516
1205	 0.532080736855437
1206	 0.532081827750688
1207	 0.532098211926355
1208	 0.532074814099896
1209	 0.532013210264383
1210	 0.531941450355359
1211	 0.531835644755638
1212	 0.531742451469874
1213	 0.531639949039656
1214	 0.531547310881984
1215	 0.531423352215038
1216	 0.531278392292043
1217	 0.531075424626363
1218	 0.53081160161948
1219	 0.53054246531648
1220	 0.530226451288814
1221	 0.529936486907302
1222	 0.529693220119825
1223	 0.529317011025894
1224	 0.528878817017165
1225	 0.528437162546708
1226	 0.52789494985473
1227	 0.527383170813664
1228	 0.526887227986279
1229	 0.526386834642964
1230	 0.525821294179619
1231	 0.525327446622945
1232	 0.524876325983636
1233	 0.524444422629834
1234	 0.524033188363429
1235	 0.523648492602515
1236	 0.523356021482564
1237	 0.52308334413797
1238	 0.522939090543594
1239	 0.522899881547701
1240	 0.522913093487872
1241	 0.523010480970139
1242	 0.523152979677396
1243	 0.523394131391894
1244	 0.523613209488018
1245	 0.523918530552772
1246	 0.524136806398418
1247	 0.524317797752107
1248	 0.524504975746973
1249	 0.524678218716354
1250	 0.524817819925706
1251	 0.524954280899284
1252	 0.525064476229573
1253	 0.525099749250681
1254	 0.525170784299803
1255	 0.525249268887299
1256	 0.52531330863888
1257	 0.525455729538215
1258	 0.52565085411193
1259	 0.525807418529539
1260	 0.526012194012291
1261	 0.526160330599353
1262	 0.526291485527764
1263	 0.526361746048703
1264	 0.526439691922683
1265	 0.526406746592296
1266	 0.526270090375035
1267	 0.526124324028179
1268	 0.525890138428581
1269	 0.525688531283028
1270	 0.525510882488573
1271	 0.525258367111635
1272	 0.525009845211648
1273	 0.524675219742437
1274	 0.524238830793968
1275	 0.523790036512844
1276	 0.523333892896188
1277	 0.522787532074046
1278	 0.522179916635415
1279	 0.521552719905548
1280	 0.520769909249407
1281	 0.519881523317244
1282	 0.518900556576847
1283	 0.517766460382392
1284	 0.51666411735411
1285	 0.515482438269782
1286	 0.514301785968901
1287	 0.513099887174438
1288	 0.511887690062325
1289	 0.510564617664997
1290	 0.509386364603386
1291	 0.508236189773382
1292	 0.507164932816843
1293	 0.506221943279576
1294	 0.505260123982156
1295	 0.50439044840829
1296	 0.503439804999254
1297	 0.502500209775491
1298	 0.501489228609279
1299	 0.500408353693076
1300	 0.499274015050641
1301	 0.498167074346812
1302	 0.497027717012028
1303	 0.495905031962427
1304	 0.49473510019869
1305	 0.493739630978631
1306	 0.492770728821787
1307	 0.491930927404222
1308	 0.491257893384286
1309	 0.490600610948372
1310	 0.490020318931827
1311	 0.489455118812645
1312	 0.488991036439062
1313	 0.48848154435978
1314	 0.488027800491186
1315	 0.487472199024877
1316	 0.486925090948704
1317	 0.486268769066172
1318	 0.485482143800745
1319	 0.484710948540515
1320	 0.483844354822595
1321	 0.483037670109891
1322	 0.482257254557761
1323	 0.481477302925904
1324	 0.48069194982039
1325	 0.479963140456841
1326	 0.479273554986869
1327	 0.478527227329443
1328	 0.477852576798032
1329	 0.477247599359531
1330	 0.476587532496756
1331	 0.475938837199951
1332	 0.475260796459904
1333	 0.474530421409517
1334	 0.473858032044744
1335	 0.473217951346321
1336	 0.472544123072518
1337	 0.471943836011634
1338	 0.471202050281569
1339	 0.470414154508402
1340	 0.469523981918595
1341	 0.468630164364444
1342	 0.46751135391012
1343	 0.466396343252435
1344	 0.464903214899161
1345	 0.463159432422098
1346	 0.46117606708909
1347	 0.458885095337572
1348	 0.456421036028719
1349	 0.45365343300912
1350	 0.450816552716642
1351	 0.447924542116837
1352	 0.445042487330339
1353	 0.442263829097778
1354	 0.439588042128349
1355	 0.437100260828068
1356	 0.434648070223778
1357	 0.432512920327995
1358	 0.430652792690601
1359	 0.428845630579802
1360	 0.427282615374536
1361	 0.425657921076713
1362	 0.424159482213829
1363	 0.422557084396555
1364	 0.421056118479603
1365	 0.4193143125037
1366	 0.417558435802508
1367	 0.415531981373954
1368	 0.41345660016727
1369	 0.410946750339338
1370	 0.408234728283746
1371	 0.405137742898146
1372	 0.401757575794408
1373	 0.397931664127963
1374	 0.393760325272835
1375	 0.389205675174499
1376	 0.384180431421541
1377	 0.37885371814982
1378	 0.373155132916923
1379	 0.367191092375237
1380	 0.361136501765792
1381	 0.354979685934872
1382	 0.348865633498316
1383	 0.342979593116328
1384	 0.337487998052507
1385	 0.332086234062957
1386	 0.327369105334223
1387	 0.323021708751083
1388	 0.319351262330407
1389	 0.316112339759423
1390	 0.313578604074626
1391	 0.311669641317905
1392	 0.310284073090032
1393	 0.309540866995167
1394	 0.309133779956145
1395	 0.309367171892553
1396	 0.309671473953032
1397	 0.310503863967551
1398	 0.31113306417927
1399	 0.312061292239983
1400	 0.312593251957078
1401	 0.313196336274402
1402	 0.313228569838803
1403	 0.313186085747894
1404	 0.312319223534444
1405	 0.31102887014689
1406	 0.308928406358487
1407	 0.305937401314131
1408	 0.302499090439939
1409	 0.298411894523916
1410	 0.29440785115518
1411	 0.290652029918105
1412	 0.287728800149409
1413	 0.286223095972943
1414	 0.286089994926771
1415	 0.288153583830568
1416	 0.291649631422449
1417	 0.296197296338489
1418	 0.302757387982249
1419	 0.308849018563781
1420	 0.316180657436863
1421	 0.322320663077339
1422	 0.328652297255179
1423	 0.333927260251967
1424	 0.338522339561823
1425	 0.342614385865468
1426	 0.345950468676862
1427	 0.349141185620668
1428	 0.351779655531289
1429	 0.354346127392126
1430	 0.356631980019089
1431	 0.358811670693509
1432	 0.360766271975399
1433	 0.362613153131309
1434	 0.364292544750447
1435	 0.365911148496945
1436	 0.367367858449779
1437	 0.368799147998993
1438	 0.370160533720421
1439	 0.371479577046046
1440	 0.372741127804205
1441	 0.373945429395398
1442	 0.375081484178626
1443	 0.376204108221596
1444	 0.377294544103577
1445	 0.378325999766606
1446	 0.379294257360545
1447	 0.380214434516262
1448	 0.38108233617108
1449	 0.381885314778547
1450	 0.38270402581033
1451	 0.383533114839331
1452	 0.384333887459065
1453	 0.385085554199842
1454	 0.385776549757712
1455	 0.386406137293517
1456	 0.386987833677121
1457	 0.387493215139599
1458	 0.387972172836027
1459	 0.388383165868279
1460	 0.38884493772145
1461	 0.389273709770241
1462	 0.389724169284085
1463	 0.390213527062749
1464	 0.390690872851949
1465	 0.391105242124305
1466	 0.391639096827359
1467	 0.392217288303654
1468	 0.392857403103484
1469	 0.393557321937906
1470	 0.394330696670688
1471	 0.395199583397651
1472	 0.396057890453936
1473	 0.396980181635241
1474	 0.397904520584068
1475	 0.398809039958201
1476	 0.399765381648626
1477	 0.400801138253658
1478	 0.401791496559736
1479	 0.402791403606271
1480	 0.403782333782626
1481	 0.404761881766241
1482	 0.405729868311235
1483	 0.40669516221896
1484	 0.407646513823262
1485	 0.408581263908898
1486	 0.409498578201451
1487	 0.410409748788937
1488	 0.411308383395389
1489	 0.412181088209258
1490	 0.413047419282803
1491	 0.413901294064431
1492	 0.414751731470779
1493	 0.415586506608031
1494	 0.416434154636904
1495	 0.417288027521486
1496	 0.41811050132206
1497	 0.418924740883408
1498	 0.419723783819782
1499	 0.420475105510541
1500	 0.421222079534055
1501	 0.421965462637224
1502	 0.422673102986633
1503	 0.423382134692356
1504	 0.424142498219672
1505	 0.424909270981393
1506	 0.425644609277439
1507	 0.426355095890815
1508	 0.42704182111848
1509	 0.427733363076773
1510	 0.428396573991501
1511	 0.429089313539158
1512	 0.429820811628042
1513	 0.430499702237402
1514	 0.431153276907931
1515	 0.431797320759887
1516	 0.432414050929596
1517	 0.433038470727645
1518	 0.433671440818042
1519	 0.43426746590942
1520	 0.434840416062197
1521	 0.435417792349828
1522	 0.435961513055867
1523	 0.436540383946446
1524	 0.437156595431185
1525	 0.437721861157901
1526	 0.438283094420389
1527	 0.438814246965853
1528	 0.439286119722012
1529	 0.439801874668994
1530	 0.440330199582144
1531	 0.440848206281513
1532	 0.441376462340401
1533	 0.441897226454674
1534	 0.442420701637112
1535	 0.442914400008697
1536	 0.443402754581624
1537	 0.443872145048215
1538	 0.444289966425507
1539	 0.444739392955688
1540	 0.44520751965027
1541	 0.445650969748282
1542	 0.446085276519116
1543	 0.446529750604615
1544	 0.446968270649331
1545	 0.447409289668116
1546	 0.447879186705397
1547	 0.448305500399876
1548	 0.448678978983931
1549	 0.449084004133649
1550	 0.449512566748186
1551	 0.449900050855463
1552	 0.450283180676147
1553	 0.450664029350115
1554	 0.450999451486739
1555	 0.451351026715635
1556	 0.451742495381349
1557	 0.452083576039624
1558	 0.452375302221992
1559	 0.45269256052673
1560	 0.452991437503339
1561	 0.453303542034769
1562	 0.453655869622773
1563	 0.453976914499241
1564	 0.454283216153505
1565	 0.454584705702155
1566	 0.454864185437394
1567	 0.455151493201358
1568	 0.455444961308724
1569	 0.455723252984548
1570	 0.455954871540224
1571	 0.45624813338795
1572	 0.456597033526721
1573	 0.456908886266675
1574	 0.457252653040086
1575	 0.457587577898727
1576	 0.457824890136968
1577	 0.458032731631659
1578	 0.4582194874515
1579	 0.458445788061756
1580	 0.458725245355965
1581	 0.458964498567394
1582	 0.459273435679645
1583	 0.459572531488494
1584	 0.459768702689582
1585	 0.459992163112607
1586	 0.460223944152305
1587	 0.460410539853101
1588	 0.460632275994152
1589	 0.460880312541727
1590	 0.46103121602587
1591	 0.461172698556949
1592	 0.461366928199302
1593	 0.461559091273666
1594	 0.461805413593525
1595	 0.462066778812975
1596	 0.462282827626715
1597	 0.462466658488414
1598	 0.462644736217719
1599	 0.462794027365407
1600	 0.462948463036664
1601	 0.463132665564364
1602	 0.463261285302561
1603	 0.463409970874622
1604	 0.463556324943874
1605	 0.463656648802494
1606	 0.463797063273952
1607	 0.463909889631445
1608	 0.464026476202641
1609	 0.464174186071099
1610	 0.464296755217972
1611	 0.464465909547068
1612	 0.464639539698041
1613	 0.464762296901667
1614	 0.464930871282765
1615	 0.465071254826854
1616	 0.46510456663406
1617	 0.465172680660361
1618	 0.465253767246166
1619	 0.465296325559945
1620	 0.465382193983542
1621	 0.46552950564497
1622	 0.465631821902537
1623	 0.465707755458108
1624	 0.465798580035703
1625	 0.465905027553835
1626	 0.465985426348592
1627	 0.466046748141517
1628	 0.46611765002839
1629	 0.466197442739098
1630	 0.466283128684321
1631	 0.466366728066681
1632	 0.466448884058234
1633	 0.46650711342024
1634	 0.466556525170955
1635	 0.466643566580946
1636	 0.466699863074096
1637	 0.466757081558893
1638	 0.466852916588336
1639	 0.466884961096001
1640	 0.4670001534477
1641	 0.467055630655144
1642	 0.467045715034127
1643	 0.467065978452487
1644	 0.467056373157206
1645	 0.467063287932053
1646	 0.467115860977779
1647	 0.467151024894945
1648	 0.46718829091749
1649	 0.467201353970065
1650	 0.46720386619552
1651	 0.467190267073607
1652	 0.467103355917178
1653	 0.467084821685127
1654	 0.467113934581254
1655	 0.467124618622752
1656	 0.4671923653021
1657	 0.467217123466632
1658	 0.46718211376493
1659	 0.467170566179865
1660	 0.467171543531926
1661	 0.467150853035977
1662	 0.467135609305688
1663	 0.467095852174704
1664	 0.467041806862771
1665	 0.466954453367168
1666	 0.466810883496384
1667	 0.466704438197781
1668	 0.466597384821019
1669	 0.466476620345737
1670	 0.466376167881305
1671	 0.466268272303287
1672	 0.466144119408467
1673	 0.466005709297488
1674	 0.465850091164536
1675	 0.465721116261042
1676	 0.465587937172707
1677	 0.465461015995651
1678	 0.465370353473895
1679	 0.465257889411555
1680	 0.465142996601055
1681	 0.464993652110881
1682	 0.464804693392802
1683	 0.46465275033374
1684	 0.464487780860643
1685	 0.464335015492608
1686	 0.464234403905094
1687	 0.464094891325815
1688	 0.463927662632086
1689	 0.463761288833127
1690	 0.46356368964266
1691	 0.463408072365949
1692	 0.463289793361634
1693	 0.463126659474518
1694	 0.462987835666447
1695	 0.46279552814198
1696	 0.462511868213368
1697	 0.46230825911008
1698	 0.462119471165573
1699	 0.461948427759024
1700	 0.461856954166987
1701	 0.461661587676755
1702	 0.461421110664098
1703	 0.461177621194408
1704	 0.460861420612143
1705	 0.460607231931993
1706	 0.460396281206849
1707	 0.46014447730083
1708	 0.459901603765061
1709	 0.45963951381368
1710	 0.459354268808211
1711	 0.459038798124084
1712	 0.458696612161779
1713	 0.458366707291509
1714	 0.458010645672614
1715	 0.457672627428179
1716	 0.457367463556194
1717	 0.457001159156673
1718	 0.456589397805917
1719	 0.456235600269291
1720	 0.455887071224398
1721	 0.455508367578415
1722	 0.455116529229089
1723	 0.454708613700058
1724	 0.454257944001344
1725	 0.453823371801906
1726	 0.45339715466906
1727	 0.452955747460834
1728	 0.452529322281688
1729	 0.452093248047535
1730	 0.451647684475364
1731	 0.451207344231201
1732	 0.450735589257096
1733	 0.450284875667228
1734	 0.449892617552574
1735	 0.44947301718334
1736	 0.449005574393179
1737	 0.448482349493733
1738	 0.447977428131226
1739	 0.447443179614317
1740	 0.44692513013782
1741	 0.446460563076495
1742	 0.44593054958111
1743	 0.445324932404568
1744	 0.444815268220649
1745	 0.444317887319911
1746	 0.443831501427365
1747	 0.443447114469793
1748	 0.442957392700373
1749	 0.44240994411843
1750	 0.441871904614172
1751	 0.441304714247604
1752	 0.440737258295053
1753	 0.440155787554498
1754	 0.43955992416082
1755	 0.438939533158901
1756	 0.43833353619303
1757	 0.437742245888335
1758	 0.437110363567957
1759	 0.436487666125125
1760	 0.435819779844182
1761	 0.435095681729212
1762	 0.434401010836164
1763	 0.433699726883725
1764	 0.4330135510475
1765	 0.432364227297707
1766	 0.431727856530717
1767	 0.431096446829598
1768	 0.430458883704058
1769	 0.429762262823431
1770	 0.429076672875717
1771	 0.428370490032909
1772	 0.427625516715552
1773	 0.426940656203611
1774	 0.426248796874795
1775	 0.425507028330967
1776	 0.424792092547993
1777	 0.424136797547563
1778	 0.423465653072799
1779	 0.422808223218654
1780	 0.422216048270315
1781	 0.421555990504566
1782	 0.42086441512231
1783	 0.420200759497774
1784	 0.419486389072257
1785	 0.418857570629129
1786	 0.418304949172927
1787	 0.417738957225047
1788	 0.417156415149373
1789	 0.416632779349341
1790	 0.416165202177473
1791	 0.415691413294037
1792	 0.415278200641111
1793	 0.414813417393023
1794	 0.41434566011171
1795	 0.413996415880421
1796	 0.413662977295917
1797	 0.413384781677372
1798	 0.413044925378373
1799	 0.412583316629188
1800	 0.412225731471032
1801	 0.411889729818505
1802	 0.411546033000326
1803	 0.411298786423602
1804	 0.411023606635671
1805	 0.410747485079798
1806	 0.410510227024355
1807	 0.410241497458873
1808	 0.409971022698512
1809	 0.409662456551949
1810	 0.409332443976843
1811	 0.409038243392011
1812	 0.408697042509353
1813	 0.408396602032989
1814	 0.408084431618168
1815	 0.407783115247025
1816	 0.407476633744311
1817	 0.407115577735313
1818	 0.406796244782592
1819	 0.406509640378462
1820	 0.406312897115179
1821	 0.406200958454277
1822	 0.406152913278983
1823	 0.406068041047738
1824	 0.405940126301646
1825	 0.40586631646397
1826	 0.405843612560744
1827	 0.405807179576478
1828	 0.40575150878155
1829	 0.405665225046221
1830	 0.405453549918004
1831	 0.400784330144365
1832	 0.400684358919942
1833	 0.400597042075412
1834	 0.400348916205557
1835	 0.400064102606583
1836	 0.399648234724921
1837	 0.399012327524736
1838	 0.398446410371987
1839	 0.397807338766135
1840	 0.397204532243628
1841	 0.396634729418008
1842	 0.396138947047272
1843	 0.395756080521072
1844	 0.395473805733119
1845	 0.395181635533292
1846	 0.394912232074264
1847	 0.394783726059311
1848	 0.394688041706576
1849	 0.394776556882694
1850	 0.394927355743064
1851	 0.394992523877785
1852	 0.394993369182796
1853	 0.394902291184372
1854	 0.394645711018708
1855	 0.39435895031118
1856	 0.393815637633375
1857	 0.39307079634459
1858	 0.392184336869306
1859	 0.39112750226953
1860	 0.389943948400643
1861	 0.388580105542652
1862	 0.386992676262001
1863	 0.385242828576214
1864	 0.383352721327586
1865	 0.381322090138961
1866	 0.379149246888615
1867	 0.376773078708128
1868	 0.374257659864905
1869	 0.37151440064445
1870	 0.368395757078078
1871	 0.365211563574983
1872	 0.361803833227853
1873	 0.358149281502065
1874	 0.354512089798288
1875	 0.350717542884201
1876	 0.346952054051102
1877	 0.343190495653373
1878	 0.339272514933668
1879	 0.33523487466346
1880	 0.331258072157331
1881	 0.32713889165459
1882	 0.322940236421923
1883	 0.318839700689867
1884	 0.314650069033032
1885	 0.310402186261178
1886	 0.305921069673655
1887	 0.301240268777929
1888	 0.296462878023155
1889	 0.291597124544753
1890	 0.286524886276978
1891	 0.281521921063527
1892	 0.276473044258019
1893	 0.271373152156506
1894	 0.266297607302919
1895	 0.261089301826308
1896	 0.255932696521095
1897	 0.250905589918681
1898	 0.245906878259118
1899	 0.241086467468546
1900	 0.236443569427731
1901	 0.231967589557956
1902	 0.227613490076125
1903	 0.223542530095022
1904	 0.219747115078903
1905	 0.216261710666852
1906	 0.213089643168653
1907	 0.21021507124005
1908	 0.207693369770697
1909	 0.205516888832637
1910	 0.203689943829476
1911	 0.20216177270463
1912	 0.200984806421646
1913	 0.200035286593238
1914	 0.199376451073294
1915	 0.198959051288515
1916	 0.198832721901745
1917	 0.199051060604189
1918	 0.19939593212827
1919	 0.199924199901187
1920	 0.200541101463863
1921	 0.201222468278175
1922	 0.202085990814497
1923	 0.202954357723571
1924	 0.203905007052763
1925	 0.20495825978092
1926	 0.20594121957151
1927	 0.206766652948192
1928	 0.2076228887015
1929	 0.208348920515595
1930	 0.209117131532781
1931	 0.209977389269765
1932	 0.210737860440625
1933	 0.211503322486695
1934	 0.21216351388807
1935	 0.212714951897593
1936	 0.213194011060756
1937	 0.213791276673596
1938	 0.214412287632633
1939	 0.215100283835127
1940	 0.215752763592425
1941	 0.216324694345705
1942	 0.216867186723034
1943	 0.217393369700799
1944	 0.218040770649076
1945	 0.218646993186398
1946	 0.219250984223891
1947	 0.219865273874482
1948	 0.220515032231414
1949	 0.22106267866007
1950	 0.221612205746479
1951	 0.222283849514335
1952	 0.222930932489237
1953	 0.223544949610858
1954	 0.224255061322628
1955	 0.224951462700465
1956	 0.225621856489311
1957	 0.22632535189871
1958	 0.227027925993848
1959	 0.227741471999187
1960	 0.228478590577132
1961	 0.22922394692748
1962	 0.229954015704773
1963	 0.230795099334576
1964	 0.231553626153432
1965	 0.232234528628391
1966	 0.232980948288379
1967	 0.233701132246063
1968	 0.234434175984012
1969	 0.235246937507154
1970	 0.236197538529911
1971	 0.237032715212374
1972	 0.237874671503045
1973	 0.238676575575951
1974	 0.239400340063314
1975	 0.240150851012573
1976	 0.240941560049061
1977	 0.24178586132944
1978	 0.242699610928496
1979	 0.243595445660374
1980	 0.244457444159989
1981	 0.245280557015318
1982	 0.24611729444106
1983	 0.246886908973094
1984	 0.24776244473927
1985	 0.248727457249222
1986	 0.249633347596833
1987	 0.250592240121447
1988	 0.251421806022833
1989	 0.252259176797779
1990	 0.253136936712387
1991	 0.253992792925086
1992	 0.255001389692611
1993	 0.255955474267351
1994	 0.256857266134474
1995	 0.257772940115016
1996	 0.258683005356023
1997	 0.2595557130422
1998	 0.26039199109408
1999	 0.261266306188234
2000	 0.262158016609424
2001	 0.262991972366588
2002	 0.263840029304398
2003	 0.264759703534681
2004	 0.265661336087734
2005	 0.266575823653169
2006	 0.267501529153904
2007	 0.268372977831139
2008	 0.269219761860392
2009	 0.270000430758493
2010	 0.270829144027713
2011	 0.271668553836299
2012	 0.272487801961825
2013	 0.273317531405233
2014	 0.274117994433691
2015	 0.274933298551519
2016	 0.275617028929068
2017	 0.276377398869926
2018	 0.277149610637349
2019	 0.277769909047956
2020	 0.278452485332661
2021	 0.279117283877124
2022	 0.279732986832149
2023	 0.280355615031685
2024	 0.280980386297873
2025	 0.28162084610186
2026	 0.282301433442054
2027	 0.282895674275379
2028	 0.283440563719336
2029	 0.284031039402136
2030	 0.284620220039984
2031	 0.285100104742711
2032	 0.285624990103295
2033	 0.28623031629915
2034	 0.286716967343796
2035	 0.287152489203477
2036	 0.287629182933065
2037	 0.288125963171173
2038	 0.288564735784615
2039	 0.289033503233814
2040	 0.289407123473583
2041	 0.289621810813765
2042	 0.289970326472035
2043	 0.290347328878278
2044	 0.290701934148663
2045	 0.291188132289705
2046	 0.29158631226753
2047	 0.291801895073427
2048	 0.292065682973916
2049	 0.29232114714675
2050	 0.29259525035194
2051	 0.292844941482443
2052	 0.293148481807618
2053	 0.293380899185436
2054	 0.293543337186676
2055	 0.293711014451132
2056	 0.293903921065725
2057	 0.294039406405846
2058	 0.294128753768218
2059	 0.294186780789227
2060	 0.294216175776449
2061	 0.294248440229387
2062	 0.294326408260818
2063	 0.294389623254159
2064	 0.294464278213419
2065	 0.294512731880638
2066	 0.294540669920953
2067	 0.294531080772843
2068	 0.294504481643865
2069	 0.294451655462257
2070	 0.294427809847353
2071	 0.294402806525122
2072	 0.294372241451849
2073	 0.294373924525655
2074	 0.294311360646321
2075	 0.294195082229107
2076	 0.294065388391598
2077	 0.293984157972783
2078	 0.293901775100292
2079	 0.293815619588028
2080	 0.293754583256012
2081	 0.293643194598768
2082	 0.293489767788243
2083	 0.293346309333966
2084	 0.293183188194667
2085	 0.293017188264884
2086	 0.292851976816798
2087	 0.292660167219179
2088	 0.292409334040361
2089	 0.292233615616534
2090	 0.292055982555109
2091	 0.291919619901215
2092	 0.291888435726546
2093	 0.291830544192148
2094	 0.291674279051564
2095	 0.29148978674201
2096	 0.291178106828063
2097	 0.290892520225138
2098	 0.290625410817249
2099	 0.290375995785386
2100	 0.290090407342314
2101	 0.289882873590406
2102	 0.289496202140086
2103	 0.289059360537098
2104	 0.288485252610257
2105	 0.287665308121835
2106	 0.286959256397081
2107	 0.286204316537609
2108	 0.285477842249458
2109	 0.284790704560982
2110	 0.284126212854197
2111	 0.283373889733781
2112	 0.28264310670419
2113	 0.282059881856467
2114	 0.281607850758814
2115	 0.281244651689077
2116	 0.281082533504743
2117	 0.280862880016514
2118	 0.280718288941252
2119	 0.280509026736157
2120	 0.280353875702491
2121	 0.280086919212948
2122	 0.279789650157986
2123	 0.279406009468352
2124	 0.278934640715872
2125	 0.278401346216019
2126	 0.277781873052315
2127	 0.277124462767693
2128	 0.276455483208104
2129	 0.275703542024526
2130	 0.274892794529421
2131	 0.274072898195366
2132	 0.273022287904857
2133	 0.271813477737343
2134	 0.270520629709303
2135	 0.269097205618237
2136	 0.26751392392912
2137	 0.265868574131678
2138	 0.263987361169363
2139	 0.261850300283695
2140	 0.259669095578411
2141	 0.25736143479924
2142	 0.254891289629079
2143	 0.252295187945348
2144	 0.24955956154886
2145	 0.246563413217391
2146	 0.243604828700658
2147	 0.240538716555243
2148	 0.237501344511168
2149	 0.23445070229377
2150	 0.231365589031112
2151	 0.22829248613148
2152	 0.225393531300893
2153	 0.222694802171978
2154	 0.220097447388324
2155	 0.217766961113052
2156	 0.215661427561386
2157	 0.213739497596947
2158	 0.212028125852077
2159	 0.210516538020567
2160	 0.209247605122521
2161	 0.208111715466839
2162	 0.20714785322815
2163	 0.206359647433262
2164	 0.205842817201684
2165	 0.205313234535817
2166	 0.204847848670515
2167	 0.204587745246598
2168	 0.204486242917046
2169	 0.204381408652135
2170	 0.204512488512489
2171	 0.204719912426082
2172	 0.204751597510397
2173	 0.20487539951726
2174	 0.205001959680607
2175	 0.205204819235411
2176	 0.20523518153275
2177	 0.205260509134389
2178	 0.205159739261247
2179	 0.204980961658082
2180	 0.204601066554064
2181	 0.204171101833632
2182	 0.203481631429301
2183	 0.202483296460055
2184	 0.20145597808943
2185	 0.200231289428157
2186	 0.19901493076077
2187	 0.197757219085665
2188	 0.196391378807782
2189	 0.194909187722583
2190	 0.193446603505264
2191	 0.191876493781397
2192	 0.190216646437417
2193	 0.188594952511536
2194	 0.186847066088107
2195	 0.185059426890287
2196	 0.183261569390174
2197	 0.181213441075534
2198	 0.179120042945344
2199	 0.176660954511294
2200	 0.173862877623177
2201	 0.171005638597999
2202	 0.16777977428659
2203	 0.16480169310478
2204	 0.161453313084828
2205	 0.158928687060879
2206	 0.15636011098863
2207	 0.15492613511323
2208	 0.154101473089534
2209	 0.154298880116163
2210	 0.155446163266967
2211	 0.157388378831753
2212	 0.16051451445329
2213	 0.163980359915725
2214	 0.168631206803078
2215	 0.173029334926062
2216	 0.177832526721422
2217	 0.182606519847078
2218	 0.187182228733726
2219	 0.191485778126351
2220	 0.195577079913135
2221	 0.199321728128955
2222	 0.202789195853193
2223	 0.205807923900505
2224	 0.208470819808393
2225	 0.210782897062456
2226	 0.21269785715683
2227	 0.214132471769564
2228	 0.215398125553843
2229	 0.216307190402072
2230	 0.21703453724163
2231	 0.217418009360363
2232	 0.217758420211321
2233	 0.217749559005582
2234	 0.217894815200268
2235	 0.218081336954339
2236	 0.218108170412086
2237	 0.218000429007822
2238	 0.218031515011687
2239	 0.217878614611724
2240	 0.217997147252709
2241	 0.218329887701646
2242	 0.21873932189598
2243	 0.219268048511606
2244	 0.219893962359897
2245	 0.220684334880653
2246	 0.221541630711677
2247	 0.222385409560032
2248	 0.223135441326336
2249	 0.223702010654356
2250	 0.22410234106449
2251	 0.224445314845702
2252	 0.224566504741901
2253	 0.224687391972482
2254	 0.224879134430105
2255	 0.224835820459638
2256	 0.224951286580608
2257	 0.224994671232122
2258	 0.224954162273769
2259	 0.224976363426714
2260	 0.225110840384335
2261	 0.224997901924718
2262	 0.224860314349055
2263	 0.224557006740419
2264	 0.223900479524937
2265	 0.223579229661303
2266	 0.223354583581334
2267	 0.223071934980845
2268	 0.222944597467988
2269	 0.222666976144806
2270	 0.222261505567587
2271	 0.22184114848641
2272	 0.221414644719546
2273	 0.22094459319258
2274	 0.220393239488472
2275	 0.219848364912405
2276	 0.219266128930654
2277	 0.218710090756645
2278	 0.218131875042767
2279	 0.217583524077468
2280	 0.217094422158077
2281	 0.216523327529567
2282	 0.216022877529679
2283	 0.215293595047293
2284	 0.214371462721358
2285	 0.213740627836603
2286	 0.213032249569657
2287	 0.212328057981375
2288	 0.211735099177231
2289	 0.210895548772002
2290	 0.210175004291157
2291	 0.209638630924804
2292	 0.209078734920382
2293	 0.208649164508242
2294	 0.207952842324416
2295	 0.207182521113374
2296	 0.206554031638268
2297	 0.205807155448437
2298	 0.204991008698118
2299	 0.204093504515346
2300	 0.20318400460102
2301	 0.202287634397727
2302	 0.201375680776798
2303	 0.200566450225482
2304	 0.199614175143852
2305	 0.19849678387492
2306	 0.197525740268831
2307	 0.196630840053682
2308	 0.195669666682306
2309	 0.194658086886665
2310	 0.193802422873211
2311	 0.192897166727797
2312	 0.192188689509172
2313	 0.191717934911038
2314	 0.191192298054478
2315	 0.190679702068416
2316	 0.19039599807107
2317	 0.190320242812833
2318	 0.190073851302691
2319	 0.189877921181814
2320	 0.189652523685003
2321	 0.18929213322753
2322	 0.189075523496518
2323	 0.18896276927615
2324	 0.188916197669164
2325	 0.188961848200933
2326	 0.188883400262568
2327	 0.188855209300043
2328	 0.188829852872721
2329	 0.188683371752138
2330	 0.188626846137124
2331	 0.188730846166055
2332	 0.188600943133917
2333	 0.188309075418696
2334	 0.188139622311478
2335	 0.187865063426274
2336	 0.187755151797248
2337	 0.187938103217225
2338	 0.187786454862378
2339	 0.187569489990939
2340	 0.187225974425772
2341	 0.186659980336071
2342	 0.186103166850026
2343	 0.185305632056915
2344	 0.184564572428569
2345	 0.183764377722236
2346	 0.182651897118487
2347	 0.181793041403747
2348	 0.180949380121083
2349	 0.180040039068718
2350	 0.179528718457933
2351	 0.179040180752621
2352	 0.178432213463085
2353	 0.177959195544062
2354	 0.177546637972728
2355	 0.177051013193226
2356	 0.176825496883537
2357	 0.176766575954109
2358	 0.176211078237943
2359	 0.175648780653612
2360	 0.175278183951165
2361	 0.174706180829131
2362	 0.174571723111463
2363	 0.174922699896833
2364	 0.17483136706397
2365	 0.174672917177896
2366	 0.174558008416242
2367	 0.173875848594433
2368	 0.173320900113713
2369	 0.17281987023362
2370	 0.172317791445786
2371	 0.171898616147278
2372	 0.171121339048059
2373	 0.170526283180316
2374	 0.169632274267131
2375	 0.168732713609925
2376	 0.168393707623617
2377	 0.1676743264924
2378	 0.166868311217715
2379	 0.166135720534951
2380	 0.16494833259352
2381	 0.163870292469878
2382	 0.16323946747748
2383	 0.162737256151815
2384	 0.162529147798865
2385	 0.162453867930722
2386	 0.162254866255811
2387	 0.161841097546113
2388	 0.161597352162707
2389	 0.161822129849676
2390	 0.16209567958018
2391	 0.162592919305499
2392	 0.163093064790628
2393	 0.163207634915541
2394	 0.163028423193381
2395	 0.162861485924921
2396	 0.162661450111268
2397	 0.162572450487274
2398	 0.162915206414214
2399	 0.163000491038538
2400	 0.162935347409712
2401	 0.163096959566348
2402	 0.163191697447923
2403	 0.16291764032757
2404	 0.162432261454868
2405	 0.161814769568926
2406	 0.161057935046265
2407	 0.160930680166751
2408	 0.161265459446759
2409	 0.161211247744731
2410	 0.160742964264863
2411	 0.159856334878448
2412	 0.158848724355072
2413	 0.158257833310187
2414	 0.158062920654869
2415	 0.158122543743483
2416	 0.15811678950982
2417	 0.158025692394525
2418	 0.157673728501355
2419	 0.1570241724721
2420	 0.156441542391699
2421	 0.155667356320271
2422	 0.15484697733912
2423	 0.154315957171347
2424	 0.153505174312683
2425	 0.152604947001046
2426	 0.151685772247285
2427	 0.150359130422346
2428	 0.149717237464877
2429	 0.149565257577689
2430	 0.148976001959528
2431	 0.148567525935802
2432	 0.148193483607395
2433	 0.147714310324742
2434	 0.146816611559165
2435	 0.14563919231713
2436	 0.14482195498527
2437	 0.143513305758306
2438	 0.143259682209989
2439	 0.143732288594066
2440	 0.143822657713008
2441	 0.143634667558548
2442	 0.142951601330342
2443	 0.141591766515196
2444	 0.140585883080634
2445	 0.139420490671864
2446	 0.138634734849821
2447	 0.138819810211021
2448	 0.138384060878261
2449	 0.13826148434901
2450	 0.13835895958751
2451	 0.137871945316677
2452	 0.138058081924016
2453	 0.137716727810041
2454	 0.137303700329844
2455	 0.137370916479293
2456	 0.13668170356506
2457	 0.136394820458321
2458	 0.136272470195884
2459	 0.135931822330827
2460	 0.135425629604616
2461	 0.134731193365362
2462	 0.134305409769606
2463	 0.133112107126745
2464	 0.131970033182563
2465	 0.132302509931287
2466	 0.132347793232153
2467	 0.132148271441036
2468	 0.132607124362719
2469	 0.131728818468233
2470	 0.130854056756578
2471	 0.130838617540172
2472	 0.130103898943258
2473	 0.129815931819596
2474	 0.129280662347449
2475	 0.12819269545579
2476	 0.127990337654504
2477	 0.127049692751224
2478	 0.126568184476972
2479	 0.125813550459982
2480	 0.125323489834126
2481	 0.125242670296495
2482	 0.124348873879826
2483	 0.124288862366452
2484	 0.124173347592191
2485	 0.123909232443412
2486	 0.124478952977378
2487	 0.124287816321768
2488	 0.123713315189783
2489	 0.124698306536986
2490	 0.124291923779834
2491	 0.123290110485738
2492	 0.12381226743673
2493	 0.123370923597343
2494	 0.123867449832843
2495	 0.124670671414975
2496	 0.123769525907404
2497	 0.122518386168864
2498	 0.122081006206202
2499	 0.122701578735048
2500	 0.122715251431389
