Wavelength	signature0021.asd
350	 0.111081311156201
351	 0.119135561718233
352	 0.11320878906503
353	 0.104047252823154
354	 0.108256838991756
355	 0.103750258716436
356	 0.105736626181947
357	 0.110949068274916
358	 0.103565487803022
359	 9.77490882212533E-02
360	 9.65527113906399E-02
361	 9.93814997892609E-02
362	 0.103052175554122
363	 0.10417469419767
364	 0.101683365605848
365	 0.097660361131034
366	 9.97806740710293E-02
367	 0.103231050627424
368	 0.102609119630387
369	 9.67196350186515E-02
370	 0.102949614157514
371	 0.104566723918584
372	 0.101181404818646
373	 0.102011783280022
374	 9.88103719705494E-02
375	 9.76194460235995E-02
376	 0.100137987779356
377	 0.101653996769761
378	 0.100046847616068
379	 9.95180479067402E-02
380	 0.101752853205847
381	 0.100551412507831
382	 9.91844884835212E-02
383	 9.77218566292006E-02
384	 9.64221577203119E-02
385	 0.100389166567563
386	 0.100937895423678
387	 9.82023390823294E-02
388	 9.72880105650066E-02
389	 9.69910487303032E-02
390	 9.81998146285217E-02
391	 0.100400370078683
392	 0.101539655497683
393	 0.10092671245646
394	 0.100984338102199
395	 0.102439606808169
396	 0.101106065343596
397	 0.101219020345142
398	 0.101584230523021
399	 0.100383378428253
400	 0.100541552391131
401	 0.100346224918852
402	 0.100066864787901
403	 0.100895496108682
404	 0.099732211905001
405	 9.94495748465679E-02
406	 0.10055863683192
407	 0.099975394408411
408	 0.10113213055682
409	 0.101437239339178
410	 9.97483480635283E-02
411	 0.101973402493836
412	 0.101393710230718
413	 9.91213813601735E-02
414	 9.89096359044192E-02
415	 0.100883233814419
416	 0.101996727437367
417	 0.10172986101406
418	 0.101730344508023
419	 0.10103252193146
420	 0.100910135612105
421	 0.101643204711249
422	 0.101280362624688
423	 0.101611508740959
424	 0.101652715151008
425	 0.100672952553783
426	 0.101871272869188
427	 0.101921235210152
428	 0.101203058261643
429	 0.102050858707509
430	 0.102284024202558
431	 0.101990923051977
432	 0.101680121613102
433	 0.10204693434329
434	 0.102306574143538
435	 0.10237050640054
436	 0.102418437881774
437	 0.102932187900105
438	 0.103169895588858
439	 0.103131045066802
440	 0.103150963784727
441	 0.103055324741129
442	 0.1037334563108
443	 0.104666944518853
444	 0.103897598653412
445	 0.104003163877044
446	 0.104221192084372
447	 0.104014721628229
448	 0.105194158311623
449	 0.105555066086855
450	 0.105329609298369
451	 0.105511442574599
452	 0.105383554664539
453	 0.105617062660452
454	 0.106071532970281
455	 0.105870154900951
456	 0.105970257903904
457	 0.106149676561257
458	 0.106210607540593
459	 0.10646953948687
460	 0.106500548673264
461	 0.106493155232122
462	 0.106761225069687
463	 0.107144518939554
464	 0.107140583402519
465	 0.106991776220572
466	 0.107467598135278
467	 0.10751488315528
468	 0.107678442061617
469	 0.108161568562035
470	 0.108011432381491
471	 0.108246073064897
472	 0.108476205971002
473	 0.108205394005988
474	 0.108591098427217
475	 0.10881957984418
476	 0.108745316622899
477	 0.108785904372898
478	 0.108919148352045
479	 0.109105622603695
480	 0.10926586274249
481	 0.109255873545155
482	 0.109322197252895
483	 0.10958447966069
484	 0.110001050971031
485	 0.110120773975309
486	 0.109929601954982
487	 0.109766828167357
488	 0.110138172032906
489	 0.110393367860546
490	 0.110686924052152
491	 0.111038474376734
492	 0.110992570495509
493	 0.111191423730598
494	 0.111441731266714
495	 0.111434458475915
496	 0.111546609117514
497	 0.111829810300737
498	 0.112187651051103
499	 0.11243200023845
500	 0.112643591835831
501	 0.112825244890415
502	 0.113018809884411
503	 0.113365796071111
504	 0.113657955108354
505	 0.113941041811994
506	 0.114267013977393
507	 0.114305641003275
508	 0.114355288424968
509	 0.114511031673735
510	 0.114681936542642
511	 0.11497210117844
512	 0.115269138873693
513	 0.115503257954447
514	 0.115747223012986
515	 0.116127801477018
516	 0.116396774482777
517	 0.116351965816119
518	 0.116751891675928
519	 0.117036831881853
520	 0.117176720002182
521	 0.117657146942196
522	 0.117940099075389
523	 0.118172672000828
524	 0.118484086978553
525	 0.118656512464833
526	 0.118858284724239
527	 0.119224170912357
528	 0.119783155967317
529	 0.120061274768521
530	 0.120321456091831
531	 0.120695698586951
532	 0.121117673644172
533	 0.121594175422894
534	 0.121960989508618
535	 0.122191085039126
536	 0.122704018140053
537	 0.123239737776518
538	 0.123647262324378
539	 0.123906991591315
540	 0.124516597622589
541	 0.12508749793535
542	 0.125508808448661
543	 0.126110123150017
544	 0.126751989819817
545	 0.127416864707156
546	 0.128093299504394
547	 0.128694716476884
548	 0.129356369822106
549	 0.130093747784011
550	 0.130860329449307
551	 0.131770111943905
552	 0.132725079811988
553	 0.13367558770958
554	 0.134693428783454
555	 0.135562340234346
556	 0.13647998115871
557	 0.137639454829787
558	 0.138695464689478
559	 0.139679298480374
560	 0.140712726869127
561	 0.141944328891995
562	 0.143012560110182
563	 0.144178569667948
564	 0.145548149673622
565	 0.14673105274895
566	 0.147973645109274
567	 0.149322046232111
568	 0.150728606654749
569	 0.152047305751717
570	 0.153245636340352
571	 0.154415214938104
572	 0.155751159644366
573	 0.157162593871347
574	 0.158531563490935
575	 0.159849566042957
576	 0.161394381777246
577	 0.162864379572057
578	 0.164262992168544
579	 0.165696231048218
580	 0.166998804465074
581	 0.168337311787914
582	 0.169802347672405
583	 0.171350591744983
584	 0.172699784093542
585	 0.174059124769468
586	 0.175569350779549
587	 0.176782498523265
588	 0.178213963034983
589	 0.179697354939085
590	 0.180768938126907
591	 0.181939998646462
592	 0.183166456236512
593	 0.184394400353934
594	 0.185639002150951
595	 0.186720102796615
596	 0.18774114435588
597	 0.188816375142858
598	 0.189802607582485
599	 0.190680187856143
600	 0.191514317594122
601	 0.192416446325905
602	 0.193367102327377
603	 0.194292898987606
604	 0.195157240677682
605	 0.196004990026399
606	 0.196654197067368
607	 0.197331551388005
608	 0.198251235664419
609	 0.198892684498138
610	 0.199405561084885
611	 0.199986611479268
612	 0.20080514547008
613	 0.201316257285602
614	 0.201789401346379
615	 0.202431889800311
616	 0.202943018118688
617	 0.203441505996161
618	 0.203926218551579
619	 0.204377445862133
620	 0.204921045436482
621	 0.205396968702139
622	 0.205783108758552
623	 0.206229252999058
624	 0.206653973818848
625	 0.207107004525433
626	 0.207603429690758
627	 0.207986256841914
628	 0.20839361767625
629	 0.208827630557228
630	 0.209219033209122
631	 0.209519876848695
632	 0.209884928493168
633	 0.210324558022401
634	 0.210631479892942
635	 0.211068544823869
636	 0.211516638320118
637	 0.211856087056723
638	 0.212316603403976
639	 0.212720543681562
640	 0.213066389991826
641	 0.213461065295783
642	 0.213900105962424
643	 0.214323112985563
644	 0.2147140679378
645	 0.215144303092641
646	 0.215467517606979
647	 0.215811688252206
648	 0.216300126201202
649	 0.216697171626935
650	 0.217088432484041
651	 0.217486738281944
652	 0.217852109422098
653	 0.218254059041215
654	 0.21860181250171
655	 0.218883726265835
656	 0.219280007494817
657	 0.219661827535763
658	 0.220053990512866
659	 0.220493186069325
660	 0.220825342507453
661	 0.221231928195463
662	 0.221699725660176
663	 0.22205253169351
664	 0.222457735841194
665	 0.222915743462251
666	 0.223389635129773
667	 0.223827233816564
668	 0.224244823202304
669	 0.224694434974424
670	 0.225204408307951
671	 0.225599968413471
672	 0.226002013344138
673	 0.226492492677228
674	 0.227083548636876
675	 0.227491448155974
676	 0.227854137593691
677	 0.228296210227672
678	 0.228709705404442
679	 0.229146038789745
680	 0.22960742772464
681	 0.230078298463568
682	 0.230556732403633
683	 0.23103530944442
684	 0.231503216274091
685	 0.231951371175136
686	 0.23250526246788
687	 0.233078678499443
688	 0.233589286565042
689	 0.234064035100694
690	 0.234582658005574
691	 0.235127684536378
692	 0.235653583854808
693	 0.236243803434919
694	 0.236742307353126
695	 0.237172349841278
696	 0.237748085324742
697	 0.238260734489029
698	 0.238709369093199
699	 0.239158881251009
700	 0.239745335990401
701	 0.240237489442515
702	 0.240695127328324
703	 0.241244453513019
704	 0.241590743676892
705	 0.242017527587165
706	 0.242561011133117
707	 0.242973014401188
708	 0.24344425579197
709	 0.243901986811916
710	 0.244294790699008
711	 0.244741411627429
712	 0.245199572487555
713	 0.245651251344882
714	 0.246087419405134
715	 0.246509910695503
716	 0.246924960256671
717	 0.247346447458072
718	 0.247793526183071
719	 0.248248305909799
720	 0.248651169726103
721	 0.248984552231355
722	 0.249333500971695
723	 0.24968662430828
724	 0.25004411331386
725	 0.250408024245572
726	 0.250787536624849
727	 0.251164078119775
728	 0.251504903269452
729	 0.251774789125992
730	 0.25204159869417
731	 0.252350283106716
732	 0.252691539770756
733	 0.252963726365182
734	 0.253232382327877
735	 0.253464565687162
736	 0.253643423325639
737	 0.253956371796267
738	 0.254217677949412
739	 0.254392347056944
740	 0.254570006073295
741	 0.254798628092207
742	 0.255107055120189
743	 0.255418291020185
744	 0.255501612854761
745	 0.255590569068329
746	 0.255770020605276
747	 0.256019740321329
748	 0.256121548065717
749	 0.256235868202779
750	 0.256407297803076
751	 0.256597504963127
752	 0.256710800237383
753	 0.256820340364716
754	 0.256938412751994
755	 0.256986852197415
756	 0.2570959628842
757	 0.257203828694291
758	 0.257247692042295
759	 0.257271649426856
760	 0.257290919100558
761	 0.257311083197298
762	 0.257330195455453
763	 0.257335960923484
764	 0.257375455549368
765	 0.257429732203626
766	 0.257427593588871
767	 0.257443463180604
768	 0.257400487368718
769	 0.257311348939686
770	 0.257387395797046
771	 0.257367261617848
772	 0.257287986893171
773	 0.257247769886904
774	 0.257227273475694
775	 0.257185516194847
776	 0.257113851460111
777	 0.257033628043894
778	 0.257022679783624
779	 0.256987262259487
780	 0.256897132899393
781	 0.256811664817633
782	 0.256689566256399
783	 0.256619678856596
784	 0.256613331481315
785	 0.256452391831517
786	 0.256302625983018
787	 0.256219429598442
788	 0.25619148708957
789	 0.256105200633752
790	 0.255987550836525
791	 0.255875646704452
792	 0.2557926586986
793	 0.255605238558157
794	 0.255430283930815
795	 0.255308357865837
796	 0.255149861246349
797	 0.255061852725972
798	 0.254958341663245
799	 0.254779198575088
800	 0.254624604512129
801	 0.254479271095499
802	 0.254314550432277
803	 0.254123136416535
804	 0.254027604939343
805	 0.253874051764842
806	 0.253694728366589
807	 0.253617149108278
808	 0.253393003478399
809	 0.253221380062098
810	 0.25312090986908
811	 0.252854775244323
812	 0.252770523424379
813	 0.252658465223904
814	 0.252406701418036
815	 0.25236358919731
816	 0.252195408700552
817	 0.251992985631469
818	 0.251905440790559
819	 0.251759649848238
820	 0.251615751069831
821	 0.251475314332769
822	 0.251318164464946
823	 0.25121063971211
824	 0.251107413058678
825	 0.251008272524439
826	 0.250951360925341
827	 0.250775415232416
828	 0.250616753356299
829	 0.250527244010465
830	 0.250351189630255
831	 0.250220928945989
832	 0.250125957278402
833	 0.25002381841678
834	 0.24988831255994
835	 0.249732956803448
836	 0.249569925410609
837	 0.249417122270004
838	 0.249314260560456
839	 0.249211067832217
840	 0.249081240287789
841	 0.248932173513957
842	 0.248867093319202
843	 0.248797341909899
844	 0.248671665764596
845	 0.248508672146597
846	 0.248472148366297
847	 0.248412525561431
848	 0.248281445547638
849	 0.248259897283278
850	 0.248192528759146
851	 0.248068179502708
852	 0.247932635394819
853	 0.247885588057594
854	 0.247765936267307
855	 0.247684737538631
856	 0.247731203597532
857	 0.24755935552672
858	 0.2475052483757
859	 0.247540662149074
860	 0.247495723564751
861	 0.247551627591279
862	 0.247563537901712
863	 0.247466709031017
864	 0.247302275230389
865	 0.247292697483396
866	 0.247348124900108
867	 0.247361053158801
868	 0.247269098506454
869	 0.247293230842689
870	 0.247261922349592
871	 0.247139951267982
872	 0.247185716144131
873	 0.247246718159001
874	 0.247265636834046
875	 0.247242684528363
876	 0.247256001386631
877	 0.24720736581853
878	 0.24717832056865
879	 0.247245756517973
880	 0.247315729515679
881	 0.247345071559623
882	 0.247369209579959
883	 0.24744562433507
884	 0.247589288408664
885	 0.247568294130506
886	 0.247517177820545
887	 0.247678340712478
888	 0.247739733698173
889	 0.247840204381463
890	 0.247914999630382
891	 0.247814115225712
892	 0.247902067384133
893	 0.248064366404546
894	 0.248230056571184
895	 0.248392916582063
896	 0.248353133126707
897	 0.248422510453902
898	 0.248672759983908
899	 0.248842947860994
900	 0.248950624334839
901	 0.249120591548627
902	 0.249323936839351
903	 0.249319738895525
904	 0.249492172667917
905	 0.249690765054318
906	 0.249829342920136
907	 0.250105020125011
908	 0.250215409612899
909	 0.2502725405217
910	 0.250422162933894
911	 0.250664585276741
912	 0.250961824472823
913	 0.251147218555386
914	 0.25118064197226
915	 0.251385852746681
916	 0.251582379799556
917	 0.251711316806039
918	 0.251826793423497
919	 0.25221101686172
920	 0.252389889332136
921	 0.252501073191942
922	 0.252749766320812
923	 0.252849277912478
924	 0.252967376144006
925	 0.253195213351866
926	 0.253532896982085
927	 0.253791920962839
928	 0.254042061190994
929	 0.254256086475355
930	 0.25442541532259
931	 0.2547598074492
932	 0.254969343083827
933	 0.255095363724758
934	 0.255292977164486
935	 0.255506568805949
936	 0.255788895949127
937	 0.256050467688923
938	 0.256192105420474
939	 0.256323465044219
940	 0.256728961118944
941	 0.257181646501499
942	 0.257368339377015
943	 0.257748627830186
944	 0.257876166342799
945	 0.257978932015463
946	 0.258423154348853
947	 0.258679324859277
948	 0.259003215318102
949	 0.259244851125618
950	 0.259297681064081
951	 0.260091224535931
952	 0.260420798860848
953	 0.260363064943857
954	 0.260552574946132
955	 0.261128085376686
956	 0.261609909782076
957	 0.261886301185432
958	 0.26206228160141
959	 0.262275581796867
960	 0.262641466483465
961	 0.262961364168152
962	 0.2630757389456
963	 0.263394840950063
964	 0.263945576496794
965	 0.264500779758621
966	 0.264821047346587
967	 0.26491730508842
968	 0.265414621137862
969	 0.26607201600792
970	 0.266491439104662
971	 0.266731121690653
972	 0.266974287111859
973	 0.267304737137654
974	 0.26773722557641
975	 0.268232014227873
976	 0.268477377613643
977	 0.268811927300157
978	 0.269434772237854
979	 0.269952970254689
980	 0.270284697234066
981	 0.270740105649734
982	 0.271345066236168
983	 0.271586863746913
984	 0.271829999302144
985	 0.272289685411811
986	 0.272870979872581
987	 0.273184928033148
988	 0.27356837757496
989	 0.273882409054069
990	 0.274227312067035
991	 0.2748790543304
992	 0.275044277547212
993	 0.275372723100586
994	 0.275974332128354
995	 0.276448616888581
996	 0.276870328063414
997	 0.277199587538346
998	 0.277556066663656
999	 0.278061021034406
1000	 0.278439847345669
1001	 0.280416455355038
1002	 0.280732268924132
1003	 0.281081128887449
1004	 0.281475149386994
1005	 0.281899668196718
1006	 0.282336122572685
1007	 0.282705113257714
1008	 0.283020826263857
1009	 0.283293441859924
1010	 0.283472582624877
1011	 0.283650716703937
1012	 0.283971653135236
1013	 0.284312026451492
1014	 0.284769719968348
1015	 0.285288212629793
1016	 0.285617851037482
1017	 0.285934426937354
1018	 0.286312960925918
1019	 0.286512439381155
1020	 0.28662411371738
1021	 0.286941049575599
1022	 0.287332061702714
1023	 0.287725572382118
1024	 0.288079893401431
1025	 0.288578803423501
1026	 0.288904155104331
1027	 0.288934797994949
1028	 0.288983007727365
1029	 0.289265205911516
1030	 0.289485205941319
1031	 0.289799530208048
1032	 0.290246413276153
1033	 0.29053186769863
1034	 0.290849413564913
1035	 0.291192297857799
1036	 0.291488283749691
1037	 0.291762982332433
1038	 0.292062162024517
1039	 0.292365757004374
1040	 0.292652857870522
1041	 0.293006357164278
1042	 0.29346669771239
1043	 0.293774611960364
1044	 0.29402243176378
1045	 0.29423260632183
1046	 0.294373155157759
1047	 0.294668392845504
1048	 0.2950583475539
1049	 0.295286905938683
1050	 0.295499177197624
1051	 0.29578156797977
1052	 0.295960783380922
1053	 0.296228573534243
1054	 0.296616887488784
1055	 0.297025583499393
1056	 0.297292644678638
1057	 0.297677119012125
1058	 0.298053198349576
1059	 0.2983016171184
1060	 0.298542587235348
1061	 0.298777827887658
1062	 0.299063809365442
1063	 0.29938564808843
1064	 0.299606415221335
1065	 0.299842161862979
1066	 0.300167713474329
1067	 0.300478005875767
1068	 0.300795155097814
1069	 0.301259462589682
1070	 0.301599368643304
1071	 0.301837853539054
1072	 0.302073628202378
1073	 0.302406159593382
1074	 0.30269055709124
1075	 0.302945889257815
1076	 0.303283928079553
1077	 0.303631802741044
1078	 0.303945806396338
1079	 0.304319284107624
1080	 0.304730087340122
1081	 0.305100349429036
1082	 0.305472116571497
1083	 0.305774728336105
1084	 0.306005002966211
1085	 0.306268096659081
1086	 0.306424500918168
1087	 0.306705570691309
1088	 0.307078775281115
1089	 0.307469568630738
1090	 0.307757286248335
1091	 0.308109916416421
1092	 0.308418889140263
1093	 0.308662365193959
1094	 0.30900575639031
1095	 0.309400405648816
1096	 0.309715185074861
1097	 0.31005883923892
1098	 0.310381790160417
1099	 0.310668299102643
1100	 0.310942787103529
1101	 0.311212648797452
1102	 0.311479750738394
1103	 0.311711750866711
1104	 0.31200447824542
1105	 0.312279422364961
1106	 0.31259066257917
1107	 0.312888237056556
1108	 0.313198425078077
1109	 0.313574747445819
1110	 0.313914084385553
1111	 0.314238077109353
1112	 0.314563343111238
1113	 0.314840145630743
1114	 0.315028070001018
1115	 0.315294634717317
1116	 0.315583212283707
1117	 0.31585822703155
1118	 0.316185114508632
1119	 0.316468716923424
1120	 0.316724318986342
1121	 0.31694792930689
1122	 0.317211436998729
1123	 0.317463842708751
1124	 0.317779432806934
1125	 0.318107926608943
1126	 0.318376975220752
1127	 0.318664706693749
1128	 0.318896883659049
1129	 0.319089104939379
1130	 0.319356520188166
1131	 0.319687782718254
1132	 0.319950351637038
1133	 0.320244373649129
1134	 0.320490709072433
1135	 0.320637745479089
1136	 0.32085301708117
1137	 0.321079117466339
1138	 0.321323366168976
1139	 0.321581320604108
1140	 0.321910761941334
1141	 0.322188307265687
1142	 0.322401602458513
1143	 0.322608482048621
1144	 0.322762852382078
1145	 0.322950967024906
1146	 0.323159356129976
1147	 0.323314639702418
1148	 0.323375147924468
1149	 0.323678054498722
1150	 0.324090669901235
1151	 0.324377391171929
1152	 0.324843775022844
1153	 0.325103702534101
1154	 0.325074221269585
1155	 0.325256208740996
1156	 0.325539104005262
1157	 0.325720406521202
1158	 0.325968825079237
1159	 0.326335665951249
1160	 0.326630257068182
1161	 0.326951837348337
1162	 0.327275987532107
1163	 0.327614154919425
1164	 0.327914915181988
1165	 0.328200156818144
1166	 0.328504980711919
1167	 0.328801436300278
1168	 0.329113793701152
1169	 0.329452185128079
1170	 0.329779094700934
1171	 0.330111207588359
1172	 0.330414632783869
1173	 0.330707024310195
1174	 0.331001152568231
1175	 0.33127858733267
1176	 0.331537458571187
1177	 0.331852409159101
1178	 0.332168345998367
1179	 0.332487300658105
1180	 0.332821945441703
1181	 0.333120743130753
1182	 0.333380406401673
1183	 0.333691837843461
1184	 0.334021285093088
1185	 0.334330188213789
1186	 0.334671523781937
1187	 0.334967389799631
1188	 0.33521194544312
1189	 0.335478931437619
1190	 0.335759312150506
1191	 0.33601633265945
1192	 0.336241091610753
1193	 0.336498565498708
1194	 0.336768812435097
1195	 0.337031985575067
1196	 0.337259802164242
1197	 0.337507091101482
1198	 0.33776280658068
1199	 0.337987341524613
1200	 0.33823769248309
1201	 0.338542369783268
1202	 0.33879884135844
1203	 0.338998474596416
1204	 0.339266236194298
1205	 0.339586843112623
1206	 0.33985192065658
1207	 0.340123622501898
1208	 0.340380793503316
1209	 0.340593338748351
1210	 0.340819579155596
1211	 0.341029605082916
1212	 0.341282295676497
1213	 0.341596639376357
1214	 0.341842904991013
1215	 0.342053422659676
1216	 0.342271092342184
1217	 0.342458863713846
1218	 0.342541937636567
1219	 0.342743483577913
1220	 0.34302253263387
1221	 0.343238865897948
1222	 0.34347012785168
1223	 0.343669612092701
1224	 0.343811832388576
1225	 0.344005073688905
1226	 0.344229345741198
1227	 0.344420764819595
1228	 0.344630653890799
1229	 0.344805952150227
1230	 0.344916986311549
1231	 0.345072728195029
1232	 0.345227111273248
1233	 0.34540255030851
1234	 0.345614478581088
1235	 0.34582159208679
1236	 0.346028841038865
1237	 0.346248181304854
1238	 0.346448534269774
1239	 0.346648429296378
1240	 0.34682806297716
1241	 0.346983294039169
1242	 0.347157673056393
1243	 0.347314637222319
1244	 0.347503140349489
1245	 0.347734720785657
1246	 0.347923871007818
1247	 0.348090105858475
1248	 0.348284638353871
1249	 0.34849084072898
1250	 0.348668458902569
1251	 0.348850173158101
1252	 0.349033102346271
1253	 0.349189802775666
1254	 0.349344330807506
1255	 0.349500469738635
1256	 0.349674360299501
1257	 0.349838748617778
1258	 0.349980653593304
1259	 0.350147853162021
1260	 0.35033834117301
1261	 0.350514112852945
1262	 0.350687597412415
1263	 0.350860304307108
1264	 0.351042422657411
1265	 0.351201553017074
1266	 0.35134982276004
1267	 0.351493065821012
1268	 0.351626780441327
1269	 0.351748147712693
1270	 0.351850087447077
1271	 0.351965767193702
1272	 0.352100764527273
1273	 0.352193316176111
1274	 0.352260479706703
1275	 0.352341639561609
1276	 0.352385678143802
1277	 0.352447254175653
1278	 0.352521701392633
1279	 0.35263041192461
1280	 0.352708463336815
1281	 0.35278746506016
1282	 0.352834474918686
1283	 0.352863244270894
1284	 0.352893350022648
1285	 0.352900287420922
1286	 0.352913806663315
1287	 0.352928754356979
1288	 0.352942011837779
1289	 0.352929535127571
1290	 0.352956041431249
1291	 0.353004361254158
1292	 0.353055795546242
1293	 0.353162686130332
1294	 0.35320869411872
1295	 0.35321428744022
1296	 0.353239190035488
1297	 0.353215474576357
1298	 0.353233170464672
1299	 0.35329460435183
1300	 0.353354485376951
1301	 0.353401878000667
1302	 0.353470664385935
1303	 0.353488336998392
1304	 0.353471821580279
1305	 0.353474297850404
1306	 0.353451750952555
1307	 0.353449918796848
1308	 0.353465072084565
1309	 0.353473968533634
1310	 0.353477843073293
1311	 0.35349345765597
1312	 0.353521733932975
1313	 0.353535958805297
1314	 0.353542257605504
1315	 0.35356342347768
1316	 0.353604206304074
1317	 0.353612913381298
1318	 0.353626156730331
1319	 0.353616061476961
1320	 0.35353982153152
1321	 0.353511828190931
1322	 0.353513150978827
1323	 0.3534990164932
1324	 0.353511414336484
1325	 0.353516425708002
1326	 0.353450200866308
1327	 0.353360967064579
1328	 0.35325819592421
1329	 0.353095307407297
1330	 0.353000249202239
1331	 0.352927653042374
1332	 0.352843639037948
1333	 0.352800237854682
1334	 0.352701718749648
1335	 0.352573082366404
1336	 0.352436446315858
1337	 0.352286142263879
1338	 0.352111779884076
1339	 0.351893462315054
1340	 0.351722415633915
1341	 0.351558738288604
1342	 0.351385804703947
1343	 0.351263454321825
1344	 0.351081184858653
1345	 0.350858672781223
1346	 0.350627905017089
1347	 0.350390598980667
1348	 0.350110307867518
1349	 0.349794155873859
1350	 0.349464977248837
1351	 0.349102237152996
1352	 0.348736982412876
1353	 0.348427121530109
1354	 0.348089733307722
1355	 0.347724197458527
1356	 0.347324780475906
1357	 0.346990577091918
1358	 0.34663250561239
1359	 0.346344149373695
1360	 0.346154758134659
1361	 0.3459013204898
1362	 0.345660333946644
1363	 0.34537272930921
1364	 0.345062803212812
1365	 0.344731604631084
1366	 0.34437131392212
1367	 0.344001239437264
1368	 0.343656053230442
1369	 0.343226295889596
1370	 0.342790952970581
1371	 0.342248159570736
1372	 0.341644687473058
1373	 0.340942090276295
1374	 0.34011869379411
1375	 0.339277215149848
1376	 0.338381430458451
1377	 0.337416162990909
1378	 0.336386686620698
1379	 0.335284302385985
1380	 0.334073387644265
1381	 0.332776930199787
1382	 0.33146501760357
1383	 0.33017356679176
1384	 0.328947336559233
1385	 0.327734106324686
1386	 0.326607053616426
1387	 0.325524457182038
1388	 0.32454309948461
1389	 0.323639670173022
1390	 0.322774895355512
1391	 0.322004977715797
1392	 0.321240364425198
1393	 0.320488081667778
1394	 0.3197843819373
1395	 0.319130208364684
1396	 0.318479999452397
1397	 0.317986284943765
1398	 0.317265745448071
1399	 0.316490940197525
1400	 0.315609253991633
1401	 0.314554309110859
1402	 0.313460473518236
1403	 0.312297442875497
1404	 0.311098510024801
1405	 0.309800278105744
1406	 0.30849610684399
1407	 0.307121452429351
1408	 0.305799748226385
1409	 0.30446865434957
1410	 0.303205206331366
1411	 0.302105099560255
1412	 0.301209407303854
1413	 0.300611082409682
1414	 0.300267358230605
1415	 0.300302825168598
1416	 0.300578123110993
1417	 0.301007058511236
1418	 0.301753642917662
1419	 0.302442856756716
1420	 0.303324981998947
1421	 0.304047019718862
1422	 0.304800025973788
1423	 0.305439947178526
1424	 0.306007968148939
1425	 0.306514816681439
1426	 0.306931718577894
1427	 0.307363333622282
1428	 0.307718992262594
1429	 0.308116988441154
1430	 0.308537909731534
1431	 0.308940542030938
1432	 0.309340730583552
1433	 0.309730676703078
1434	 0.31010019993803
1435	 0.310485423949505
1436	 0.31088207996921
1437	 0.311261752559351
1438	 0.311668474715323
1439	 0.312019699627137
1440	 0.312312750014049
1441	 0.312629348876608
1442	 0.312916135338082
1443	 0.313220709520879
1444	 0.313550524817766
1445	 0.313872377330751
1446	 0.314199070136072
1447	 0.314501504876535
1448	 0.314790187976939
1449	 0.315055650575172
1450	 0.315289849462625
1451	 0.31552786128237
1452	 0.315739729074797
1453	 0.315952579724036
1454	 0.316145767971501
1455	 0.316334072288133
1456	 0.316508506834774
1457	 0.316674711310756
1458	 0.316832274841232
1459	 0.316967844702165
1460	 0.317110717634024
1461	 0.317256118299787
1462	 0.317397954096013
1463	 0.317531470841633
1464	 0.317682130827608
1465	 0.31780998010097
1466	 0.318000520952993
1467	 0.318230370657914
1468	 0.318467518123812
1469	 0.318755724591839
1470	 0.319026023844008
1471	 0.319266799264858
1472	 0.319562835902137
1473	 0.319883727565601
1474	 0.320229388070461
1475	 0.320644283755793
1476	 0.321005456284489
1477	 0.321339799698661
1478	 0.321717095860281
1479	 0.322093019402993
1480	 0.322483555470541
1481	 0.322930046000679
1482	 0.323332599390706
1483	 0.323704751058279
1484	 0.324088893276053
1485	 0.324483726377651
1486	 0.324853681806141
1487	 0.325196840461751
1488	 0.325554869946556
1489	 0.32591363688825
1490	 0.326253816209388
1491	 0.32658210273707
1492	 0.326942706114369
1493	 0.327260643688371
1494	 0.32756627914751
1495	 0.327884043804442
1496	 0.328211301440012
1497	 0.328522518129367
1498	 0.328812910575886
1499	 0.329116446861315
1500	 0.329401655266904
1501	 0.329686072061517
1502	 0.329986603864741
1503	 0.33025458449332
1504	 0.330504523825639
1505	 0.330788191407549
1506	 0.331078591227014
1507	 0.331359473945975
1508	 0.331667005313023
1509	 0.331940811366513
1510	 0.332191893283836
1511	 0.332424195406269
1512	 0.332639660155863
1513	 0.33285511291768
1514	 0.333047630532189
1515	 0.333252133797225
1516	 0.333454487308504
1517	 0.333677757346611
1518	 0.333903363784839
1519	 0.334133125763042
1520	 0.33439856045772
1521	 0.334623417611065
1522	 0.334830818028768
1523	 0.335030497598141
1524	 0.335215644717028
1525	 0.335389588572739
1526	 0.335536780747013
1527	 0.335711972719708
1528	 0.335885057263154
1529	 0.336068693199445
1530	 0.336289474925484
1531	 0.336470916321291
1532	 0.336629953568972
1533	 0.33680086139474
1534	 0.336968435819549
1535	 0.337119051672066
1536	 0.337263875262477
1537	 0.337411813508871
1538	 0.33754943031559
1539	 0.337677425547493
1540	 0.337802397880095
1541	 0.337934584808082
1542	 0.338045897941134
1543	 0.338181861414651
1544	 0.338340012945445
1545	 0.338496250215446
1546	 0.338661958628851
1547	 0.338823733074695
1548	 0.339004997394791
1549	 0.339155170974369
1550	 0.339293696018942
1551	 0.339417407120505
1552	 0.339495060729605
1553	 0.33961177838856
1554	 0.339753193173792
1555	 0.3398673910612
1556	 0.339993203729581
1557	 0.34009930783529
1558	 0.340162428863655
1559	 0.340247111192723
1560	 0.340341627378518
1561	 0.340438243509562
1562	 0.34053963958333
1563	 0.34063927480258
1564	 0.340745751456572
1565	 0.340837329061876
1566	 0.34092223971868
1567	 0.341009389471488
1568	 0.341071801523129
1569	 0.341162695350996
1570	 0.341268114234122
1571	 0.341377043342188
1572	 0.341522754317394
1573	 0.34163853379227
1574	 0.341725997314779
1575	 0.341848627285001
1576	 0.341919580113008
1577	 0.341981562676761
1578	 0.342076628670575
1579	 0.342136543528181
1580	 0.342198967259442
1581	 0.342281917084969
1582	 0.34235031658999
1583	 0.342448965161758
1584	 0.342568438664852
1585	 0.342670552286955
1586	 0.342739464772316
1587	 0.342783024425807
1588	 0.342788082940152
1589	 0.342807033439654
1590	 0.342896228004977
1591	 0.342947886932137
1592	 0.343016052556784
1593	 0.343131846448083
1594	 0.343196790319647
1595	 0.343250621821892
1596	 0.343320289464754
1597	 0.343370025016064
1598	 0.343404463593273
1599	 0.343475362728615
1600	 0.343525276413161
1601	 0.343562699472121
1602	 0.343626078360379
1603	 0.343650629895439
1604	 0.343684698422852
1605	 0.343745973786837
1606	 0.343792604098843
1607	 0.343856135693751
1608	 0.343941917458843
1609	 0.343988489834345
1610	 0.344005388682818
1611	 0.344045054851179
1612	 0.344113849233212
1613	 0.344180954284423
1614	 0.344232905656259
1615	 0.344272979450988
1616	 0.344273221846707
1617	 0.344292703354148
1618	 0.344327336903058
1619	 0.344395035370206
1620	 0.344433533592358
1621	 0.344454864091169
1622	 0.344515911410352
1623	 0.344591648947659
1624	 0.344651250678364
1625	 0.344735171258218
1626	 0.344784425779317
1627	 0.344803005456686
1628	 0.344835477234596
1629	 0.34485831279082
1630	 0.34494442803671
1631	 0.345038498506857
1632	 0.345113657654904
1633	 0.345224592084763
1634	 0.345254255253002
1635	 0.345278234673253
1636	 0.345346787026951
1637	 0.345353123297647
1638	 0.345388067081374
1639	 0.345436157139315
1640	 0.345480789770179
1641	 0.345487636286169
1642	 0.34536780862533
1643	 0.345385856573017
1644	 0.345506758367153
1645	 0.345577408313375
1646	 0.345774683052291
1647	 0.345873840874012
1648	 0.345817091253479
1649	 0.345819161754748
1650	 0.345812153499887
1651	 0.345824267544706
1652	 0.345885792836991
1653	 0.345922259861724
1654	 0.345951549383743
1655	 0.34597794658719
1656	 0.345979991098329
1657	 0.346002262469847
1658	 0.346044552554337
1659	 0.346073506253023
1660	 0.346123990867183
1661	 0.346141081344592
1662	 0.34610905663884
1663	 0.346105267239189
1664	 0.346096329075086
1665	 0.346095863111233
1666	 0.346127620990861
1667	 0.346142401858514
1668	 0.346151558396854
1669	 0.346149120457462
1670	 0.346134571259387
1671	 0.346120136564145
1672	 0.346079572569946
1673	 0.346068995317696
1674	 0.346071452353868
1675	 0.346080794644075
1676	 0.346124755106557
1677	 0.346145864613554
1678	 0.346173640530076
1679	 0.346172772865423
1680	 0.346141136216065
1681	 0.346117225520208
1682	 0.346069620895622
1683	 0.346039610318074
1684	 0.346015724887246
1685	 0.346005126419266
1686	 0.346019738459882
1687	 0.346007737368045
1688	 0.345991255467496
1689	 0.345975685644247
1690	 0.345931901591654
1691	 0.345914236151781
1692	 0.345929025476348
1693	 0.345918941498736
1694	 0.345903945468892
1695	 0.345885808320254
1696	 0.345854302034888
1697	 0.345824363052937
1698	 0.345787706076418
1699	 0.345768847102281
1700	 0.345764087256858
1701	 0.345746109183433
1702	 0.345739238696735
1703	 0.345710296755921
1704	 0.345651174751042
1705	 0.345608606249753
1706	 0.345561680090658
1707	 0.345535600289518
1708	 0.345527552324489
1709	 0.345510576035798
1710	 0.345471187269118
1711	 0.345484210353275
1712	 0.345578065207825
1713	 0.345541238871129
1714	 0.345524396617627
1715	 0.345397330646949
1716	 0.345052845270479
1717	 0.344920883373355
1718	 0.344829569042797
1719	 0.34475163973989
1720	 0.344817747381469
1721	 0.344730152306865
1722	 0.344639292404728
1723	 0.344560043464387
1724	 0.344422553968142
1725	 0.344309470491381
1726	 0.344216337033597
1727	 0.344118383759172
1728	 0.344026389039373
1729	 0.34391270480792
1730	 0.343795581233061
1731	 0.343676425678874
1732	 0.343550761255913
1733	 0.343396144779496
1734	 0.343197844352511
1735	 0.343044591396777
1736	 0.342905492327059
1737	 0.342836868846566
1738	 0.342741264762714
1739	 0.342617090414206
1740	 0.342493408028319
1741	 0.342391123013639
1742	 0.342258738111834
1743	 0.342076940588561
1744	 0.341940989791778
1745	 0.341822703563216
1746	 0.341674308706504
1747	 0.341557472239075
1748	 0.341396805231269
1749	 0.341163881648146
1750	 0.341009667195497
1751	 0.340874960314217
1752	 0.340738301865838
1753	 0.340650109822835
1754	 0.340497394026342
1755	 0.340315374095263
1756	 0.34016295943522
1757	 0.33998654668897
1758	 0.339843936845012
1759	 0.339727838933913
1760	 0.339564304231214
1761	 0.339431546446703
1762	 0.33930620708801
1763	 0.339203253371111
1764	 0.339078800354117
1765	 0.338934498643752
1766	 0.338771717182071
1767	 0.338570017006291
1768	 0.338356290717156
1769	 0.338188170991658
1770	 0.338084899174265
1771	 0.337985241731037
1772	 0.337847369979423
1773	 0.337705044313731
1774	 0.337535117932476
1775	 0.337341352233013
1776	 0.337224742084115
1777	 0.337118315958276
1778	 0.336979324238716
1779	 0.336814280600011
1780	 0.336619792974652
1781	 0.33649378956727
1782	 0.336398610478508
1783	 0.336299741507532
1784	 0.33624065430835
1785	 0.33618365254927
1786	 0.336107767062999
1787	 0.336031872027321
1788	 0.335997702035112
1789	 0.335925038795574
1790	 0.335830775210661
1791	 0.335736791728263
1792	 0.33562736225285
1793	 0.33544729395216
1794	 0.33534013770657
1795	 0.335354677209295
1796	 0.335386799139942
1797	 0.335397779658937
1798	 0.335344536994175
1799	 0.335273557638633
1800	 0.335197571107351
1801	 0.33518547754163
1802	 0.335262296108568
1803	 0.335238007612573
1804	 0.335179052020922
1805	 0.335152914690858
1806	 0.335062565489473
1807	 0.334997669378031
1808	 0.334949063147169
1809	 0.334882418544528
1810	 0.334866706213602
1811	 0.334835855142786
1812	 0.334791128615308
1813	 0.33472446984562
1814	 0.334672609878417
1815	 0.334639324945154
1816	 0.334622147571552
1817	 0.334658577275823
1818	 0.334631356898421
1819	 0.334510233596944
1820	 0.334366102412245
1821	 0.334191311827222
1822	 0.334106466363466
1823	 0.334127161410407
1824	 0.334146493310475
1825	 0.334161463936608
1826	 0.334075537124721
1827	 0.333926572364689
1828	 0.333826407133136
1829	 0.333747174026088
1830	 0.333718475133099
1831	 0.335321000714397
1832	 0.335340149668428
1833	 0.335262334637421
1834	 0.335207321775865
1835	 0.33515957784487
1836	 0.335078311011086
1837	 0.334922198631466
1838	 0.334844046336037
1839	 0.334804002831998
1840	 0.33476050997038
1841	 0.334703741553812
1842	 0.334631559485715
1843	 0.334546376629815
1844	 0.334404345623504
1845	 0.334304152683889
1846	 0.334235006461374
1847	 0.334135468339577
1848	 0.334049890287425
1849	 0.333907590087899
1850	 0.333666913981151
1851	 0.333582254393034
1852	 0.333462756044985
1853	 0.33323787119673
1854	 0.333025576952242
1855	 0.332842725378291
1856	 0.332517603309388
1857	 0.332154176709691
1858	 0.33172502532924
1859	 0.331192667812292
1860	 0.330716348353145
1861	 0.330060148007029
1862	 0.329311069283575
1863	 0.328645922146697
1864	 0.327826585294637
1865	 0.326970769411021
1866	 0.326195602824655
1867	 0.325160822430246
1868	 0.323945939104655
1869	 0.322646505846182
1870	 0.321261338207926
1871	 0.319690470139791
1872	 0.318215604756763
1873	 0.316764598982071
1874	 0.315166416487497
1875	 0.313576441259015
1876	 0.311896729532958
1877	 0.310016574334967
1878	 0.30807472527061
1879	 0.306029534215002
1880	 0.303974653965213
1881	 0.30180835362352
1882	 0.299522955856288
1883	 0.297173087256899
1884	 0.29464818631212
1885	 0.291984090460769
1886	 0.289252538248246
1887	 0.286320844820213
1888	 0.283177217249762
1889	 0.280017358333379
1890	 0.276719940159636
1891	 0.273361888249157
1892	 0.26998089430237
1893	 0.266660387279047
1894	 0.263306220907322
1895	 0.259842945147613
1896	 0.256339097298307
1897	 0.252921382807142
1898	 0.249472955110061
1899	 0.246108769286903
1900	 0.242923648710267
1901	 0.239897557139262
1902	 0.236904760896106
1903	 0.234198556455272
1904	 0.231694663855498
1905	 0.229395917509939
1906	 0.227413319064659
1907	 0.225561077564276
1908	 0.223879846062589
1909	 0.222465166693759
1910	 0.221175615843034
1911	 0.220099930203879
1912	 0.219216754298525
1913	 0.218632609696474
1914	 0.218188422267976
1915	 0.217975372057754
1916	 0.217905434708877
1917	 0.217853398636139
1918	 0.217981590519872
1919	 0.218110678250789
1920	 0.218329439063955
1921	 0.218796429641942
1922	 0.219165061837274
1923	 0.219585605523053
1924	 0.220058784279141
1925	 0.220676152888528
1926	 0.221160850525561
1927	 0.221758118325203
1928	 0.222538097437421
1929	 0.223156876445131
1930	 0.223747538016122
1931	 0.224427860645704
1932	 0.224909658357975
1933	 0.225324159295896
1934	 0.22581329835683
1935	 0.22635135372862
1936	 0.2267881891687
1937	 0.227231347232918
1938	 0.227728430684827
1939	 0.228201590958432
1940	 0.228680234606589
1941	 0.229215702829477
1942	 0.229796925543247
1943	 0.230404326007031
1944	 0.230932652265336
1945	 0.231463322446505
1946	 0.23200414473345
1947	 0.232541145045888
1948	 0.233053853446966
1949	 0.233563291989112
1950	 0.234067626109131
1951	 0.234524410917903
1952	 0.235007309362127
1953	 0.235504173842844
1954	 0.236113965549408
1955	 0.236724007152708
1956	 0.237328185129689
1957	 0.238004299839946
1958	 0.238641521216343
1959	 0.239286144504251
1960	 0.239880663069517
1961	 0.240431264657207
1962	 0.241004667456542
1963	 0.241577501985057
1964	 0.242156705683213
1965	 0.242800571620136
1966	 0.243447032191786
1967	 0.24408025871704
1968	 0.244733461359992
1969	 0.245408265673461
1970	 0.246124537516697
1971	 0.246804956255671
1972	 0.24749720907083
1973	 0.248163092819316
1974	 0.248806497309204
1975	 0.24942782470906
1976	 0.250079040109401
1977	 0.250749430737938
1978	 0.251406255982117
1979	 0.252147934080751
1980	 0.252854357882841
1981	 0.253570215050315
1982	 0.254302734929281
1983	 0.25506233881037
1984	 0.255758190426443
1985	 0.256447077979334
1986	 0.257146766222077
1987	 0.257798413500095
1988	 0.258494527747294
1989	 0.259268056768249
1990	 0.259945204735366
1991	 0.260628885065735
1992	 0.26134671098049
1993	 0.262047167913286
1994	 0.262790398395121
1995	 0.263519241512401
1996	 0.264276985754228
1997	 0.265011440911331
1998	 0.265724008931805
1999	 0.266440692139186
2000	 0.267190235700889
2001	 0.267846859293206
2002	 0.268505155072658
2003	 0.269176940417863
2004	 0.269823966211147
2005	 0.270521801682371
2006	 0.271237490931497
2007	 0.27197687552952
2008	 0.272747437990649
2009	 0.273636885962947
2010	 0.274332292756495
2011	 0.274971969790845
2012	 0.275587710644234
2013	 0.276013759188206
2014	 0.276553718346633
2015	 0.277186534996785
2016	 0.277761801808153
2017	 0.278214344054081
2018	 0.278812430595258
2019	 0.279348490254979
2020	 0.279883745095141
2021	 0.280500706658568
2022	 0.281255852894936
2023	 0.281844790259575
2024	 0.282364344379079
2025	 0.282960051936094
2026	 0.283543264544414
2027	 0.284110023663244
2028	 0.284716391822427
2029	 0.285321196035637
2030	 0.285825540276701
2031	 0.286352377659874
2032	 0.286898927047397
2033	 0.287418530715877
2034	 0.287937895300683
2035	 0.288383724882838
2036	 0.288827540052796
2037	 0.289244563739308
2038	 0.289646919433532
2039	 0.290028709240318
2040	 0.290407279470442
2041	 0.290748746050621
2042	 0.2911239265187
2043	 0.291532581622757
2044	 0.291886019354472
2045	 0.292253761607163
2046	 0.292573483780588
2047	 0.292841201090521
2048	 0.293161646197016
2049	 0.293534225069118
2050	 0.293883755464571
2051	 0.294218770099956
2052	 0.294573488727632
2053	 0.294886969067098
2054	 0.295075438008908
2055	 0.295463333083282
2056	 0.296013327125837
2057	 0.296429812955336
2058	 0.296941975587966
2059	 0.297307632702247
2060	 0.297470154271395
2061	 0.297754793804935
2062	 0.298110025326393
2063	 0.298531353646411
2064	 0.298977786381664
2065	 0.299301755339847
2066	 0.299590548892953
2067	 0.299760317737368
2068	 0.299971687738744
2069	 0.300160444645231
2070	 0.300373682539232
2071	 0.300554360936958
2072	 0.300801087723294
2073	 0.301104390254866
2074	 0.301384163634549
2075	 0.301701035954863
2076	 0.301989971039448
2077	 0.302282801992132
2078	 0.302526081505755
2079	 0.302715336794325
2080	 0.303075492651224
2081	 0.303350519119932
2082	 0.303605839429491
2083	 0.303842468284677
2084	 0.30407203384313
2085	 0.304250893644068
2086	 0.304385253516466
2087	 0.304567332224915
2088	 0.304666880069679
2089	 0.30491354355769
2090	 0.305309344040082
2091	 0.305611285649687
2092	 0.305950831367594
2093	 0.306295139333767
2094	 0.30652878331429
2095	 0.306760611823397
2096	 0.306990800651537
2097	 0.307150100853042
2098	 0.307350856466206
2099	 0.307541623948535
2100	 0.307727614065239
2101	 0.307935288404797
2102	 0.308121579213854
2103	 0.308293631254655
2104	 0.308426125471557
2105	 0.308531110481641
2106	 0.308640133492329
2107	 0.308682596395923
2108	 0.308800709628291
2109	 0.308967947144993
2110	 0.309129944807054
2111	 0.309343884530334
2112	 0.30947329546673
2113	 0.309515009947601
2114	 0.309669717972426
2115	 0.309853656532282
2116	 0.310072655297054
2117	 0.310303130646707
2118	 0.310631288031243
2119	 0.310850399079781
2120	 0.311019789452642
2121	 0.311183124717873
2122	 0.311334620857644
2123	 0.311445758604381
2124	 0.311515291329441
2125	 0.311601988136577
2126	 0.311689062209891
2127	 0.311710554517988
2128	 0.311664092869867
2129	 0.311695555581567
2130	 0.311745335014637
2131	 0.311724128001791
2132	 0.311711602593108
2133	 0.311813497055767
2134	 0.311675235209518
2135	 0.311339990215085
2136	 0.311143109802721
2137	 0.310903480160468
2138	 0.310660910873044
2139	 0.310488345379292
2140	 0.310257074893289
2141	 0.309972385794128
2142	 0.309652801359885
2143	 0.309377909999272
2144	 0.308997897257719
2145	 0.308527256277897
2146	 0.307995534776019
2147	 0.307418659151935
2148	 0.30672076171463
2149	 0.305961282428603
2150	 0.305217442667424
2151	 0.304609714155075
2152	 0.304052355644092
2153	 0.30344958755963
2154	 0.302904330568572
2155	 0.302331745738507
2156	 0.301689548968089
2157	 0.30111300200609
2158	 0.300618642782329
2159	 0.300071570924259
2160	 0.299420648551753
2161	 0.298931678740743
2162	 0.298530431553851
2163	 0.298104185720043
2164	 0.297868721289945
2165	 0.297460791984903
2166	 0.296831740100019
2167	 0.296368273271297
2168	 0.29588013488625
2169	 0.295483648079752
2170	 0.295220877062094
2171	 0.295047035086361
2172	 0.29494391575781
2173	 0.294733135737777
2174	 0.29446731056037
2175	 0.294165881144592
2176	 0.293834715213283
2177	 0.293419766885755
2178	 0.293002375181837
2179	 0.29264161045103
2180	 0.292135829534076
2181	 0.291494981575225
2182	 0.290901752838501
2183	 0.290212694511461
2184	 0.289593798548873
2185	 0.289028417040907
2186	 0.288430843128255
2187	 0.287874661880265
2188	 0.287220138730229
2189	 0.286490236169759
2190	 0.285805767178563
2191	 0.285050460562034
2192	 0.284251976579182
2193	 0.28328939652989
2194	 0.282264263472604
2195	 0.281078182693628
2196	 0.279824927057725
2197	 0.278638594235598
2198	 0.277448916108466
2199	 0.27627680377588
2200	 0.275070512714531
2201	 0.273985620071754
2202	 0.272941222329127
2203	 0.271965536517498
2204	 0.270983530526116
2205	 0.270269967031387
2206	 0.269580607336526
2207	 0.269257683480487
2208	 0.269145543157036
2209	 0.26942942705063
2210	 0.270079211048025
2211	 0.270934900598824
2212	 0.272306285429814
2213	 0.273603115739751
2214	 0.275165684328505
2215	 0.276601437696892
2216	 0.278064060386917
2217	 0.279438984056161
2218	 0.280859804394652
2219	 0.282085498193499
2220	 0.283176326063513
2221	 0.284140994202444
2222	 0.284931671468439
2223	 0.285592338945514
2224	 0.286132011872767
2225	 0.28653523234084
2226	 0.286935016624971
2227	 0.287197580914573
2228	 0.287453280354104
2229	 0.287733170783053
2230	 0.287876349412224
2231	 0.287866763313369
2232	 0.287885553473834
2233	 0.287843429395172
2234	 0.287822999783355
2235	 0.287836519297529
2236	 0.287754961759748
2237	 0.287584113366312
2238	 0.287465029305183
2239	 0.287249734637884
2240	 0.287152684246857
2241	 0.287130859947043
2242	 0.28715601021601
2243	 0.28734652802693
2244	 0.287370986660908
2245	 0.287351653991241
2246	 0.287336848432823
2247	 0.287173104038631
2248	 0.287053233671273
2249	 0.287022779683679
2250	 0.286968925143045
2251	 0.286984203663471
2252	 0.287091760491502
2253	 0.287253334947154
2254	 0.287414534987219
2255	 0.287395993387983
2256	 0.287366411312929
2257	 0.287353776424547
2258	 0.287240287882512
2259	 0.287216207039123
2260	 0.287260729625978
2261	 0.287302891797607
2262	 0.28739667805273
2263	 0.287382327927813
2264	 0.287441675323554
2265	 0.287291108334328
2266	 0.286841829406546
2267	 0.286654590510099
2268	 0.28650136524218
2269	 0.286316635800978
2270	 0.28623280100815
2271	 0.286125539903569
2272	 0.286003386657636
2273	 0.285810297609485
2274	 0.285670544572271
2275	 0.285451313884921
2276	 0.285021595194614
2277	 0.284727803929268
2278	 0.28452092385366
2279	 0.284229909765475
2280	 0.283964072274984
2281	 0.283663887624938
2282	 0.283284867156301
2283	 0.282956478527314
2284	 0.282586118314086
2285	 0.282022467466492
2286	 0.281453140042748
2287	 0.280750021424838
2288	 0.280139707793858
2289	 0.279802384555057
2290	 0.279436803967976
2291	 0.27920575281247
2292	 0.27918332374875
2293	 0.278980294770281
2294	 0.278560733989443
2295	 0.278332029282274
2296	 0.277946871816366
2297	 0.277459252074014
2298	 0.277289154851281
2299	 0.276944211821466
2300	 0.276630477278544
2301	 0.276404077403431
2302	 0.276040418863504
2303	 0.275671065940151
2304	 0.275227234659732
2305	 0.274534339967306
2306	 0.274118707782637
2307	 0.273763357168002
2308	 0.27346699738544
2309	 0.273482500468386
2310	 0.27315672742436
2311	 0.272628048924437
2312	 0.272265152169313
2313	 0.271760194414202
2314	 0.27142228665919
2315	 0.271317744426993
2316	 0.271147484524998
2317	 0.270933946593805
2318	 0.270846141961862
2319	 0.270772409366018
2320	 0.270738892060169
2321	 0.270877354450588
2322	 0.270856548697388
2323	 0.270899141605411
2324	 0.270843892051779
2325	 0.27062009993023
2326	 0.270437188044264
2327	 0.270235633317377
2328	 0.269978230073935
2329	 0.269640918427794
2330	 0.269409660744521
2331	 0.26915030998258
2332	 0.268961900808656
2333	 0.268874101111181
2334	 0.268772315706683
2335	 0.268774972469764
2336	 0.268627000670334
2337	 0.26838573549396
2338	 0.268173333896367
2339	 0.267935003454539
2340	 0.267659974753829
2341	 0.267398044407898
2342	 0.267082727433016
2343	 0.266806911316484
2344	 0.266341357440836
2345	 0.265949980969024
2346	 0.265826904589259
2347	 0.265490515541936
2348	 0.264994029123938
2349	 0.264465069774706
2350	 0.264044304876027
2351	 0.263771264977217
2352	 0.263559380744428
2353	 0.263470799606612
2354	 0.263124664627028
2355	 0.262806412305375
2356	 0.262674361911685
2357	 0.262441141475371
2358	 0.262157422466281
2359	 0.261724602185184
2360	 0.261287797742133
2361	 0.260738338729232
2362	 0.260302569846446
2363	 0.260090800068247
2364	 0.259567254019391
2365	 0.259137227191601
2366	 0.259001396024545
2367	 0.258716952601044
2368	 0.258272431876069
2369	 0.257797254556148
2370	 0.257163921207578
2371	 0.256468905333881
2372	 0.256027585955755
2373	 0.255649742094649
2374	 0.255091606393122
2375	 0.254587271520142
2376	 0.253947745883741
2377	 0.253063547493159
2378	 0.252497903506254
2379	 0.251763522976616
2380	 0.251029505320403
2381	 0.250772710298985
2382	 0.250401590424962
2383	 0.250237347249769
2384	 0.249860310966298
2385	 0.249112153491161
2386	 0.248733091493538
2387	 0.248333023217369
2388	 0.24813003624247
2389	 0.24805453004648
2390	 0.247618832771899
2391	 0.247231963462217
2392	 0.246779953416446
2393	 0.246451019247299
2394	 0.246239134829678
2395	 0.245928876555922
2396	 0.24547983307851
2397	 0.24475218985228
2398	 0.244119536833052
2399	 0.243453987355277
2400	 0.243059322996496
2401	 0.242981309650102
2402	 0.243061478220021
2403	 0.243236303191798
2404	 0.242796603354092
2405	 0.242275688852089
2406	 0.241993645060701
2407	 0.241895704180276
2408	 0.241850726542319
2409	 0.241205004151061
2410	 0.240424877656137
2411	 0.239350294726477
2412	 0.238423410428784
2413	 0.238608069019633
2414	 0.238698497944694
2415	 0.238399138698921
2416	 0.238138327716241
2417	 0.237341107012157
2418	 0.23650284723407
2419	 0.236030332291213
2420	 0.235137302728626
2421	 0.234314404783363
2422	 0.233857362513044
2423	 0.233370317045156
2424	 0.232600712594003
2425	 0.231743624378205
2426	 0.230977813735027
2427	 0.229497737311018
2428	 0.228865827697208
2429	 0.229126928912649
2430	 0.228713983240068
2431	 0.228710279845718
2432	 0.228460181984861
2433	 0.227487278495502
2434	 0.226767109474817
2435	 0.225753452270992
2436	 0.225324977409528
2437	 0.225655741688857
2438	 0.225677086416636
2439	 0.225824089327357
2440	 0.225483156670075
2441	 0.224301457938554
2442	 0.223511785366085
2443	 0.222671065292327
2444	 0.221829739709731
2445	 0.221352395398086
2446	 0.220903245598357
2447	 0.220422430541386
2448	 0.219395471823757
2449	 0.218399453722146
2450	 0.218006428185156
2451	 0.217270851497994
2452	 0.217033483152288
2453	 0.217557055036529
2454	 0.217439913643977
2455	 0.216992963623513
2456	 0.216589789225301
2457	 0.215918528909184
2458	 0.214875531205827
2459	 0.214578903311941
2460	 0.214935668128769
2461	 0.214768595731801
2462	 0.214991459236984
2463	 0.21478706808753
2464	 0.213608060101224
2465	 0.212702641805386
2466	 0.212080478399764
2467	 0.211653190581923
2468	 0.21136532065073
2469	 0.21136451183545
2470	 0.210725875838081
2471	 0.209960992466286
2472	 0.209742987283934
2473	 0.208614156450861
2474	 0.207800518408581
2475	 0.207197923389085
2476	 0.206443110741661
2477	 0.206123365401724
2478	 0.205538751923499
2479	 0.204547598300646
2480	 0.204026704558377
2481	 0.203863567965383
2482	 0.20421964960212
2483	 0.204780695902006
2484	 0.204228414235653
2485	 0.202969314148926
2486	 0.201363383585748
2487	 0.199667122453971
2488	 0.198428601721395
2489	 0.198710762727487
2490	 0.199225164624984
2491	 0.200090896507308
2492	 0.202198519565033
2493	 0.202635509685265
2494	 0.201803602112259
2495	 0.201114350469468
2496	 0.199318430870311
2497	 0.197976792212783
2498	 0.197951462938238
2499	 0.19734107660361
2500	 0.196428969950112
