Wavelength	signature0024.asd
350	 0.113009317202788
351	 0.113776528240371
352	 0.109293464654863
353	 0.108147640614201
354	 0.115708095095482
355	 0.104474889494856
356	 0.100315885117662
357	 0.104922586978015
358	 0.101184849271663
359	 0.098071785484156
360	 0.100346929304661
361	 0.105936234156731
362	 0.105339481666981
363	 0.10038238715875
364	 9.81134568372741E-02
365	 0.101961661315818
366	 0.10482549203151
367	 0.105875363318115
368	 0.106752110480526
369	 0.108126614861898
370	 0.101201397927987
371	 9.77732353891913E-02
372	 0.100413642680844
373	 0.104300536469555
374	 9.90416388719196E-02
375	 9.74873000115926E-02
376	 0.10220962614284
377	 0.101841108991749
378	 9.99428954963647E-02
379	 0.100794656026191
380	 0.104469298633181
381	 0.101965646147302
382	 9.96414146270313E-02
383	 9.86132685469166E-02
384	 9.87880402565351E-02
385	 0.102466265149931
386	 0.102450113297008
387	 9.99235469615316E-02
388	 0.100218869924126
389	 9.91936004943087E-02
390	 9.85383786488985E-02
391	 9.93321861140972E-02
392	 0.101286277736227
393	 0.100506166262469
394	 9.94858825080289E-02
395	 0.100158410761927
396	 0.100724011354357
397	 0.10122655437446
398	 0.100516602781457
399	 9.83638193402796E-02
400	 9.90960674662887E-02
401	 0.101132386221088
402	 0.102595718949446
403	 0.102011462001493
404	 0.100818804993348
405	 0.101265662430463
406	 0.102456117142922
407	 9.97917144801052E-02
408	 9.99465477251269E-02
409	 0.101329809167422
410	 0.101635858827572
411	 0.101467233765375
412	 0.100544147943202
413	 0.100396525416518
414	 0.10217560450429
415	 0.101557415180136
416	 0.100993561771011
417	 0.101355709866089
418	 0.101822376314525
419	 0.101711610494322
420	 0.101557765481001
421	 0.101788562332399
422	 0.102381931568197
423	 0.101948614203727
424	 0.101542125529534
425	 0.102232839341562
426	 0.102578064859119
427	 0.101957699779774
428	 0.101235201580685
429	 0.10192823436049
430	 0.10329696782352
431	 0.103242251543175
432	 0.101878755904492
433	 0.102255881437124
434	 0.103301798455557
435	 0.103712520739115
436	 0.103065379401039
437	 0.103634996622733
438	 0.104133963227234
439	 0.104304182516326
440	 0.104340896137586
441	 0.103834198974569
442	 0.104213038414396
443	 0.105166181792916
444	 0.104516874630907
445	 0.105000526725052
446	 0.105452890320047
447	 0.105119848571147
448	 0.106239603590682
449	 0.106863621308039
450	 0.106755561708592
451	 0.106434446052573
452	 0.10641335815323
453	 0.106853082410476
454	 0.107280547493813
455	 0.106778741250137
456	 0.106467559772457
457	 0.106895199191239
458	 0.107910485846376
459	 0.108204962605232
460	 0.107909443969299
461	 0.107915457881328
462	 0.108891449620869
463	 0.108991716050205
464	 0.108739179378137
465	 0.108764123530326
466	 0.109523928569614
467	 0.109127669247726
468	 0.108720634483868
469	 0.109086146428324
470	 0.109419381243528
471	 0.109614091332964
472	 0.109545136161624
473	 0.10932052749037
474	 0.109948702385373
475	 0.110159831081763
476	 0.110028283128327
477	 0.110589485098251
478	 0.110474201771217
479	 0.110263243200802
480	 0.110419553348421
481	 0.110676747348241
482	 0.111111325062744
483	 0.111401870548475
484	 0.11130604102983
485	 0.111393999864218
486	 0.111454897048237
487	 0.111613600247787
488	 0.112184273174731
489	 0.11243607562046
490	 0.112601017301487
491	 0.112800604333155
492	 0.112652767208498
493	 0.113055075713806
494	 0.113460915981568
495	 0.113256857369685
496	 0.11364377848005
497	 0.113923179301547
498	 0.113979151836671
499	 0.11418575936907
500	 0.114539064735747
501	 0.114826205802859
502	 0.114970118158444
503	 0.115208134858007
504	 0.115375306898882
505	 0.115712517526463
506	 0.116326765776365
507	 0.116094341654054
508	 0.116163722458964
509	 0.116673151442567
510	 0.116873541485565
511	 0.116855058565058
512	 0.116957410013843
513	 0.117316672665326
514	 0.117543565866288
515	 0.118074776678229
516	 0.118471451783128
517	 0.118308062824948
518	 0.118882682912316
519	 0.119167045591669
520	 0.119102466832288
521	 0.11958293341066
522	 0.119948333059593
523	 0.120087971022368
524	 0.120093918223359
525	 0.120260113800007
526	 0.120653594577468
527	 0.121059630647376
528	 0.121231050850736
529	 0.121504145002106
530	 0.12192650149134
531	 0.122384517284657
532	 0.122633496595791
533	 0.122991484210204
534	 0.123400456871888
535	 0.123758515418514
536	 0.124055196990027
537	 0.124418030077794
538	 0.124801064659673
539	 0.125115751659412
540	 0.12561208207955
541	 0.126155487620983
542	 0.126700028062325
543	 0.127352183226193
544	 0.12793003137624
545	 0.128469662395393
546	 0.129042229425482
547	 0.129643127208733
548	 0.130264520931969
549	 0.130884886209537
550	 0.131491731647624
551	 0.132237429487781
552	 0.13297274722464
553	 0.133677950228147
554	 0.134601890888784
555	 0.135337016388388
556	 0.136026175949663
557	 0.136894649068039
558	 0.137773784392534
559	 0.138737557957901
560	 0.139732207322266
561	 0.140634448643492
562	 0.141772051185938
563	 0.142938930727972
564	 0.144000368848676
565	 0.145119057550368
566	 0.146295795107823
567	 0.147411735906184
568	 0.148374770612069
569	 0.149477870371912
570	 0.150496227808419
571	 0.151457754647921
572	 0.15264074404316
573	 0.153745221538596
574	 0.154922965645677
575	 0.156282108882181
576	 0.157609927531796
577	 0.158894666793489
578	 0.160127280327799
579	 0.16131917978107
580	 0.162544497828444
581	 0.163840006272909
582	 0.16519968773766
583	 0.166564178851396
584	 0.167763248168691
585	 0.168937422437984
586	 0.170201687391234
587	 0.171351600412941
588	 0.172642561148696
589	 0.17392310623575
590	 0.174884803763723
591	 0.17600605583585
592	 0.177005708705287
593	 0.177802739080202
594	 0.178717316553205
595	 0.17956228204058
596	 0.180383045857132
597	 0.181231763678138
598	 0.181957738123988
599	 0.182769774186727
600	 0.183604437740305
601	 0.184230146159095
602	 0.184990652037167
603	 0.185802184832275
604	 0.186552295308314
605	 0.187180436603242
606	 0.187764350442598
607	 0.18836306465265
608	 0.188984869092652
609	 0.189434986936463
610	 0.189933030690103
611	 0.190549888134014
612	 0.191186414848569
613	 0.191539351582209
614	 0.191932890083856
615	 0.192552496134607
616	 0.192978758563052
617	 0.19341804344942
618	 0.193884312161054
619	 0.194333925633331
620	 0.194825106031049
621	 0.19524190659988
622	 0.195590711610476
623	 0.196023132192957
624	 0.196535856417502
625	 0.196988540543666
626	 0.197310489663409
627	 0.197712434821938
628	 0.198140786657722
629	 0.198548472693371
630	 0.198909939318458
631	 0.199361309044937
632	 0.199797027269123
633	 0.200177343196773
634	 0.200580175538063
635	 0.20111836696238
636	 0.201596423841554
637	 0.201893863335213
638	 0.202428107153009
639	 0.202927830239695
640	 0.203380251683729
641	 0.203912258994247
642	 0.204300424868253
643	 0.204754384462953
644	 0.205349864894199
645	 0.205872073665898
646	 0.206300003183098
647	 0.206733153997073
648	 0.207246972883874
649	 0.207634762263136
650	 0.208091830297577
651	 0.208611280327383
652	 0.209037189297681
653	 0.209418583612768
654	 0.209839221868201
655	 0.210328229013409
656	 0.210809090504418
657	 0.211195874164751
658	 0.211609784435286
659	 0.212167460863205
660	 0.212591222897999
661	 0.213126422207146
662	 0.213743145774653
663	 0.214182765277736
664	 0.214721725938957
665	 0.215276812887622
666	 0.215777744169147
667	 0.216306226325076
668	 0.216916666348871
669	 0.217519602374249
670	 0.218012014213635
671	 0.21854415250701
672	 0.219056020345013
673	 0.219560805706186
674	 0.220142419027622
675	 0.22065178346338
676	 0.221148388704796
677	 0.221681335346153
678	 0.222177276608879
679	 0.22267871838941
680	 0.223202567024442
681	 0.223753818510328
682	 0.224335749628334
683	 0.224866215136951
684	 0.225372326897676
685	 0.225987348810523
686	 0.226555906646946
687	 0.22707640568729
688	 0.227594642357637
689	 0.22819513910236
690	 0.228801723416751
691	 0.229389190361193
692	 0.229974357868931
693	 0.230695643592578
694	 0.231309722053123
695	 0.231779980835645
696	 0.232310663756145
697	 0.232907320092005
698	 0.233497508858754
699	 0.234029818961369
700	 0.234548035977046
701	 0.23511983763951
702	 0.235708675980493
703	 0.236241007193085
704	 0.236729084866485
705	 0.237225176168928
706	 0.237733195701155
707	 0.238206538218475
708	 0.238708259517579
709	 0.239163689280001
710	 0.239554195422328
711	 0.240060177980289
712	 0.240578457000581
713	 0.241037279811815
714	 0.24141426122045
715	 0.241890396176641
716	 0.242386562260632
717	 0.242852207822652
718	 0.243287668533184
719	 0.243781600290297
720	 0.244227290568023
721	 0.244572019037949
722	 0.244960898118995
723	 0.245331432783508
724	 0.24573344344478
725	 0.246210535323053
726	 0.246588441173031
727	 0.246919703118435
728	 0.247270801790642
729	 0.247694027010418
730	 0.248009279728987
731	 0.24832811241513
732	 0.248700269861845
733	 0.248957785378744
734	 0.249245177612403
735	 0.24955839637444
736	 0.249859247447248
737	 0.250192676906766
738	 0.25044067860269
739	 0.250640123626522
740	 0.250928698473718
741	 0.251204907898963
742	 0.251454037683493
743	 0.251684091718592
744	 0.251919858325874
745	 0.252181422808992
746	 0.252434756305497
747	 0.2526444308943
748	 0.252822144943397
749	 0.253025710752562
750	 0.253221583534309
751	 0.253349354317219
752	 0.253576616200885
753	 0.253795127023987
754	 0.253947444237849
755	 0.254073567347573
756	 0.254252988129943
757	 0.254445811503713
758	 0.254602591413423
759	 0.254723811095715
760	 0.254832496096269
761	 0.254942645448517
762	 0.255054430894571
763	 0.255109514793953
764	 0.255250350330573
765	 0.255428290844851
766	 0.255441560134262
767	 0.255478450433021
768	 0.255517104544636
769	 0.255566372849216
770	 0.255753014753175
771	 0.255784401526497
772	 0.255766993715225
773	 0.255854186310267
774	 0.255908395948491
775	 0.255974165766464
776	 0.256031229672685
777	 0.256037565944208
778	 0.256076424411946
779	 0.256106704987531
780	 0.256115579345868
781	 0.256135749029621
782	 0.256197159051059
783	 0.256217510386403
784	 0.256171670467759
785	 0.256219764551306
786	 0.256160977479067
787	 0.25611964941898
788	 0.256239280980158
789	 0.256249240944685
790	 0.256172100842426
791	 0.256085234794881
792	 0.256081396373422
793	 0.256088090053621
794	 0.256076295260732
795	 0.256021436651294
796	 0.255905134461615
797	 0.255923923002888
798	 0.255932020278465
799	 0.255824869999863
800	 0.255786611469585
801	 0.255709256933121
802	 0.25564003229411
803	 0.255638883442836
804	 0.255576276208618
805	 0.255539529434822
806	 0.255530140493004
807	 0.255483398246664
808	 0.255330914254058
809	 0.255236140944634
810	 0.255224306471523
811	 0.255132230176619
812	 0.255092227644563
813	 0.255045406442439
814	 0.254961969826554
815	 0.254958590763658
816	 0.254893342016027
817	 0.254825707622673
818	 0.25483370662759
819	 0.254815000383466
820	 0.254727634836701
821	 0.254632203654122
822	 0.254617893891432
823	 0.254552284862267
824	 0.254490624094929
825	 0.254478531736136
826	 0.254519010255392
827	 0.254391450263095
828	 0.254249915798721
829	 0.254198480567374
830	 0.25416110080638
831	 0.254111668370624
832	 0.254098629530915
833	 0.254126099857193
834	 0.25401783639009
835	 0.253955939919404
836	 0.253905455442147
837	 0.253805214083268
838	 0.253871853800895
839	 0.253815896077999
840	 0.253712458006255
841	 0.253808466518481
842	 0.253760317662294
843	 0.25373139010266
844	 0.253748416864758
845	 0.253673557731889
846	 0.253655528161189
847	 0.253655509604797
848	 0.253635286823182
849	 0.253605217822416
850	 0.25363372238639
851	 0.253598856755826
852	 0.253468128400653
853	 0.253533456708167
854	 0.253593013682709
855	 0.253555719946465
856	 0.253431029408358
857	 0.253434278497329
858	 0.253509507097297
859	 0.253565231491727
860	 0.253543632201675
861	 0.253664873041862
862	 0.253717646562767
863	 0.253662111006358
864	 0.253614448529033
865	 0.2536720917951
866	 0.253673995469536
867	 0.253632743950028
868	 0.253754478058222
869	 0.253831774575058
870	 0.253888036739435
871	 0.253954298456416
872	 0.25401451607451
873	 0.25402894294736
874	 0.254175925939337
875	 0.254411833897632
876	 0.254111275786291
877	 0.25422968528715
878	 0.254464139296526
879	 0.254390983160543
880	 0.254412420762648
881	 0.254541338540841
882	 0.254688195750362
883	 0.254745851015576
884	 0.254735956944841
885	 0.254891338484794
886	 0.255098713633878
887	 0.255126848442351
888	 0.255188605396034
889	 0.255275895379338
890	 0.25538642653484
891	 0.255518868820793
892	 0.255614862342992
893	 0.255717508751828
894	 0.255849106200857
895	 0.256004959779469
896	 0.256205589305862
897	 0.256371581073019
898	 0.256486004170365
899	 0.256609819438588
900	 0.256650263538016
901	 0.256901531838881
902	 0.257291026129037
903	 0.257222134555643
904	 0.257421547882479
905	 0.257726731557228
906	 0.257928780756451
907	 0.258055505417615
908	 0.258102065222455
909	 0.258282456463812
910	 0.258649904149555
911	 0.25885342625209
912	 0.259027083322959
913	 0.259172549002441
914	 0.259299338404296
915	 0.259494624419612
916	 0.259870438432506
917	 0.260129919305293
918	 0.26011351802183
919	 0.26039733145381
920	 0.260609729873623
921	 0.260817840875176
922	 0.261122681674984
923	 0.261260281483768
924	 0.261515523280269
925	 0.261769038503797
926	 0.261869818651887
927	 0.262099784806467
928	 0.262422747893165
929	 0.262727019345959
930	 0.262906636562557
931	 0.262988511290036
932	 0.263185261575662
933	 0.263533306979977
934	 0.263918780033675
935	 0.264027678390042
936	 0.264214493129486
937	 0.264422006709719
938	 0.264528815725055
939	 0.265025035177476
940	 0.265426580048525
941	 0.265652806187606
942	 0.265863071646089
943	 0.266262808086815
944	 0.266447795421819
945	 0.266685272109775
946	 0.267276345731354
947	 0.267210855351477
948	 0.267351126337826
949	 0.267775250073224
950	 0.268181498484044
951	 0.268528297571026
952	 0.268902368557104
953	 0.269138812417306
954	 0.26912861702208
955	 0.269404472820994
956	 0.269904481362748
957	 0.270345078198805
958	 0.270538274988661
959	 0.270999587252288
960	 0.27141266206932
961	 0.271604559843719
962	 0.271627801741219
963	 0.272015592842743
964	 0.27251510707256
965	 0.273028214954829
966	 0.273438940928827
967	 0.273353680476194
968	 0.273855372045087
969	 0.27442107961032
970	 0.274541597303854
971	 0.275277343329944
972	 0.275729679899468
973	 0.275955902308056
974	 0.276191200227325
975	 0.276380628399915
976	 0.276820186684875
977	 0.277338905848969
978	 0.277723381208811
979	 0.277957152435749
980	 0.278064772219691
981	 0.278441416014348
982	 0.279074582464664
983	 0.27928312797149
984	 0.279843379518608
985	 0.280431415866229
986	 0.280732758204713
987	 0.280805259576257
988	 0.281646238204709
989	 0.281860884950045
990	 0.281626167246896
991	 0.282628316994018
992	 0.282623980898081
993	 0.283029941467546
994	 0.283801329747102
995	 0.283783523930618
996	 0.284250966790989
997	 0.28465967894128
998	 0.284948772400812
999	 0.285392790821739
1000	 0.286110700798974
1001	 0.276846908154013
1002	 0.277318144786495
1003	 0.277601961524588
1004	 0.277896220426493
1005	 0.278185931075234
1006	 0.278425141844207
1007	 0.278795103208162
1008	 0.279132575612563
1009	 0.279465556919923
1010	 0.279770592352345
1011	 0.280134727391955
1012	 0.280436964681229
1013	 0.280829399893011
1014	 0.281236833069947
1015	 0.281565370006349
1016	 0.281864008872477
1017	 0.282069190679793
1018	 0.282242861369129
1019	 0.282440061076429
1020	 0.282856587958266
1021	 0.28330988113357
1022	 0.283662159081616
1023	 0.284059934371471
1024	 0.284383457508053
1025	 0.284565162582044
1026	 0.284807340150785
1027	 0.285260207547228
1028	 0.285597299259718
1029	 0.285895837205531
1030	 0.28622945686548
1031	 0.286444772534695
1032	 0.286612183653452
1033	 0.286885871124492
1034	 0.287205115524811
1035	 0.287382015340093
1036	 0.287573155830329
1037	 0.287857692655333
1038	 0.288155273630587
1039	 0.288411902513639
1040	 0.28881169299162
1041	 0.289291866283762
1042	 0.289605053874292
1043	 0.289879777827866
1044	 0.290218022891111
1045	 0.290486934720154
1046	 0.290765924185974
1047	 0.291103551394979
1048	 0.29133326427349
1049	 0.291600512997767
1050	 0.292067828416043
1051	 0.292560613533293
1052	 0.292934992482538
1053	 0.293268299107664
1054	 0.29354702285763
1055	 0.293812557828061
1056	 0.294037863096789
1057	 0.294300695693263
1058	 0.294697976139481
1059	 0.295046790990916
1060	 0.295295127191297
1061	 0.295613691459277
1062	 0.295998571463784
1063	 0.296324953210797
1064	 0.296627199753404
1065	 0.296984424311646
1066	 0.297326515540098
1067	 0.297648128155297
1068	 0.297972681176428
1069	 0.29833518921882
1070	 0.298679319190229
1071	 0.29899447963253
1072	 0.299329220404896
1073	 0.29965264603102
1074	 0.300034647778442
1075	 0.300419243669801
1076	 0.300688617441468
1077	 0.301010354203635
1078	 0.301346664562817
1079	 0.301631061291424
1080	 0.301985045376023
1081	 0.302288494176224
1082	 0.302613065946004
1083	 0.302962283617659
1084	 0.303331954291361
1085	 0.303661368650525
1086	 0.304015924999796
1087	 0.304329071782343
1088	 0.304598097945511
1089	 0.304898532489767
1090	 0.305136761874637
1091	 0.305341333486335
1092	 0.305584305274634
1093	 0.305864706490109
1094	 0.306207324469897
1095	 0.306541099840096
1096	 0.30683155952464
1097	 0.307102385435226
1098	 0.307399830418508
1099	 0.307703450578513
1100	 0.308006250830893
1101	 0.308373922062068
1102	 0.30864877772587
1103	 0.308861597711235
1104	 0.309055193894317
1105	 0.309338817135733
1106	 0.309585657197473
1107	 0.309838269764918
1108	 0.310118319786515
1109	 0.310342031716605
1110	 0.310544144823324
1111	 0.310823443456092
1112	 0.311099179874971
1113	 0.311359818287892
1114	 0.311621373414468
1115	 0.311898858723465
1116	 0.312191408221249
1117	 0.312432919162837
1118	 0.312642184605621
1119	 0.312895447085716
1120	 0.313139578591316
1121	 0.31337139781386
1122	 0.313651431277096
1123	 0.313897144317427
1124	 0.314094047306242
1125	 0.314368316659861
1126	 0.314668124978046
1127	 0.314956284231016
1128	 0.315259477793271
1129	 0.315519983746986
1130	 0.315759033793954
1131	 0.315971747683304
1132	 0.316204185724904
1133	 0.316397629880525
1134	 0.316640376289461
1135	 0.316922105116664
1136	 0.317179825405333
1137	 0.317495474232127
1138	 0.317727069681221
1139	 0.317868207464942
1140	 0.318097407866849
1141	 0.318317526234846
1142	 0.318425649855629
1143	 0.318616938113303
1144	 0.318830346955261
1145	 0.319009610027173
1146	 0.319152233036254
1147	 0.31935019116703
1148	 0.319568860938231
1149	 0.319771434495692
1150	 0.319990700870287
1151	 0.320199753827266
1152	 0.320396877917208
1153	 0.320587412387679
1154	 0.320807680807398
1155	 0.320984839941147
1156	 0.321041945097262
1157	 0.321257610930169
1158	 0.32160796716501
1159	 0.32182665275845
1160	 0.322158206558333
1161	 0.322477154782597
1162	 0.322734894045748
1163	 0.322888638917031
1164	 0.323137702466938
1165	 0.323419577891318
1166	 0.323675779093718
1167	 0.323926636895729
1168	 0.32418550990687
1169	 0.324451731882081
1170	 0.324715503450689
1171	 0.324984181207223
1172	 0.325250813260799
1173	 0.325503226369414
1174	 0.325770719790734
1175	 0.326054746537328
1176	 0.326327184837297
1177	 0.326599123745666
1178	 0.32687075940143
1179	 0.327138182072262
1180	 0.327410609832142
1181	 0.327658255169694
1182	 0.327914694800105
1183	 0.328133066465934
1184	 0.328270020582784
1185	 0.328514654506431
1186	 0.328818486696681
1187	 0.329067808944955
1188	 0.32938100466501
1189	 0.329609530545984
1190	 0.329724893833116
1191	 0.329905846177665
1192	 0.330082885034876
1193	 0.330283890040579
1194	 0.330528125731298
1195	 0.330752533318184
1196	 0.330981516224062
1197	 0.331189164925011
1198	 0.33141645395084
1199	 0.331653813837088
1200	 0.331868232545191
1201	 0.332074962968138
1202	 0.332295681951611
1203	 0.332503310170259
1204	 0.332718799098592
1205	 0.332952686030271
1206	 0.333185034478297
1207	 0.333423686297581
1208	 0.333636345451425
1209	 0.333843913862692
1210	 0.334053191747504
1211	 0.334241456531231
1212	 0.33443107208175
1213	 0.334628888831782
1214	 0.334814605129382
1215	 0.335059070595766
1216	 0.335258690347357
1217	 0.335439283745457
1218	 0.335633779113252
1219	 0.33579940509615
1220	 0.335888755779807
1221	 0.33605751303902
1222	 0.336275621578239
1223	 0.33645195122651
1224	 0.33662726131682
1225	 0.336808162953842
1226	 0.336971383463024
1227	 0.337148567234367
1228	 0.337351733563434
1229	 0.337535012720449
1230	 0.337694391222928
1231	 0.337876809792966
1232	 0.338090696050618
1233	 0.338267717964386
1234	 0.338421400589868
1235	 0.338586596472295
1236	 0.338778040334541
1237	 0.338970346830569
1238	 0.339137676902578
1239	 0.339330505056957
1240	 0.339502223563759
1241	 0.33960970667318
1242	 0.339781013347938
1243	 0.340009351176603
1244	 0.340196174368368
1245	 0.340393059632932
1246	 0.340555307045006
1247	 0.340654358418185
1248	 0.340821265587574
1249	 0.341022113572604
1250	 0.341190866178122
1251	 0.341387974687756
1252	 0.341569226907184
1253	 0.341698146316919
1254	 0.341851699419054
1255	 0.342016221585129
1256	 0.342207028522494
1257	 0.342374919694016
1258	 0.342532371844652
1259	 0.342707750524865
1260	 0.342885006277068
1261	 0.343069908619751
1262	 0.343288695391258
1263	 0.343452329388689
1264	 0.343594026722074
1265	 0.343734900902837
1266	 0.343838646548577
1267	 0.343963330404928
1268	 0.344105215934632
1269	 0.344229713492966
1270	 0.344334265191525
1271	 0.344459214685658
1272	 0.344604495878705
1273	 0.344722475402171
1274	 0.344830639327475
1275	 0.344947151957654
1276	 0.345035502261146
1277	 0.345144399725718
1278	 0.345266448696263
1279	 0.345420459977179
1280	 0.34554063360572
1281	 0.345664045158023
1282	 0.345760533440391
1283	 0.345838023457965
1284	 0.345904715179615
1285	 0.345950262363057
1286	 0.345997763729743
1287	 0.346032330204394
1288	 0.346074847598876
1289	 0.34609910526146
1290	 0.346160028070692
1291	 0.346253634052852
1292	 0.346322824315574
1293	 0.346401165022868
1294	 0.346477793988953
1295	 0.346539501305605
1296	 0.346599820590496
1297	 0.346679021662252
1298	 0.346740491684746
1299	 0.346757525917832
1300	 0.3468162939776
1301	 0.346874778342802
1302	 0.346936474750808
1303	 0.34699976669353
1304	 0.347092629293734
1305	 0.34712928687824
1306	 0.347131534635154
1307	 0.347152943737707
1308	 0.347148394552909
1309	 0.347174050128882
1310	 0.347231010703692
1311	 0.347264860920593
1312	 0.347294803991696
1313	 0.347318767051105
1314	 0.34734612601741
1315	 0.347351919657326
1316	 0.347351779507253
1317	 0.347331606396694
1318	 0.347288615723155
1319	 0.347234747855178
1320	 0.34714616439953
1321	 0.347085237213692
1322	 0.347040409430519
1323	 0.346977998222439
1324	 0.346911918889287
1325	 0.346864267998024
1326	 0.346788529200481
1327	 0.346689780136593
1328	 0.346632197753293
1329	 0.346602498725677
1330	 0.346539012792028
1331	 0.34649194741044
1332	 0.346409287027198
1333	 0.34629175770515
1334	 0.34617986736653
1335	 0.346048684163162
1336	 0.345942809739264
1337	 0.345831365009442
1338	 0.345740514944287
1339	 0.34570482397355
1340	 0.345602766285965
1341	 0.345484804563609
1342	 0.345351340333787
1343	 0.345188179344859
1344	 0.345003028063175
1345	 0.344802299240551
1346	 0.344585445146897
1347	 0.344346017170032
1348	 0.344082960333098
1349	 0.343785271606042
1350	 0.343507705569523
1351	 0.343206225808725
1352	 0.342904146710615
1353	 0.342615093747318
1354	 0.342336538245305
1355	 0.342051168581455
1356	 0.341747701211412
1357	 0.341484306492873
1358	 0.341232529261506
1359	 0.340999936986275
1360	 0.340816300386878
1361	 0.340585722456161
1362	 0.34034042150162
1363	 0.340108561250582
1364	 0.339892440895581
1365	 0.33961844166579
1366	 0.339335599313424
1367	 0.33903795984621
1368	 0.338730504810789
1369	 0.338349135504015
1370	 0.337971558351884
1371	 0.337503501770966
1372	 0.336963451829136
1373	 0.336347095835731
1374	 0.335707630961594
1375	 0.334945794643459
1376	 0.334078128729156
1377	 0.333118478635586
1378	 0.332077377414699
1379	 0.330941055593112
1380	 0.329782622457867
1381	 0.328587192196328
1382	 0.327351931370787
1383	 0.326088144011304
1384	 0.324854754849233
1385	 0.323578836204266
1386	 0.322403311858657
1387	 0.321257775672806
1388	 0.320205449430104
1389	 0.319208473955309
1390	 0.318285053392402
1391	 0.317433010340128
1392	 0.316630647602665
1393	 0.315903938944392
1394	 0.315187859680144
1395	 0.314552058347832
1396	 0.313865976804907
1397	 0.313228696208571
1398	 0.312483025119698
1399	 0.311697745634355
1400	 0.310853100319385
1401	 0.309958247105486
1402	 0.30897658005391
1403	 0.307937976962952
1404	 0.306823516773854
1405	 0.305599988200805
1406	 0.304347068928481
1407	 0.303018092156407
1408	 0.301665730116168
1409	 0.300283168646756
1410	 0.298993235658457
1411	 0.297849294117331
1412	 0.296907735260229
1413	 0.296289844371035
1414	 0.29591834014425
1415	 0.295876615429024
1416	 0.296092552815937
1417	 0.296449504743072
1418	 0.297106652384486
1419	 0.297699653153574
1420	 0.298479055446948
1421	 0.299100806773127
1422	 0.299739262482416
1423	 0.300286085935034
1424	 0.300766888380976
1425	 0.301201820727721
1426	 0.301561140545473
1427	 0.301927829570537
1428	 0.302233909211443
1429	 0.302578124329957
1430	 0.302922957180344
1431	 0.303282902463707
1432	 0.303669707816141
1433	 0.304025134624322
1434	 0.304379460872747
1435	 0.30472637065869
1436	 0.30503286521619
1437	 0.305376457295509
1438	 0.305746780487684
1439	 0.306103472027636
1440	 0.306496074923108
1441	 0.306839197138574
1442	 0.307140972113685
1443	 0.307453468451004
1444	 0.307751862703639
1445	 0.308032121410794
1446	 0.308319233542242
1447	 0.308616868152461
1448	 0.308892220897341
1449	 0.309128473642427
1450	 0.309391434051748
1451	 0.309640706135313
1452	 0.309862241472901
1453	 0.310102404737069
1454	 0.310311300926476
1455	 0.310493365460996
1456	 0.310670433754572
1457	 0.310841349943563
1458	 0.310988051367799
1459	 0.311105410576256
1460	 0.311235315045478
1461	 0.311338534153997
1462	 0.311488989376728
1463	 0.311658562440924
1464	 0.311841115973984
1465	 0.312055072267491
1466	 0.312265307082434
1467	 0.312453475644722
1468	 0.3127125031179
1469	 0.313015262598895
1470	 0.313315497822061
1471	 0.313665747885104
1472	 0.314000880762906
1473	 0.314327723566138
1474	 0.314660511911321
1475	 0.315001527653303
1476	 0.315357359323671
1477	 0.315709219769643
1478	 0.316087641298285
1479	 0.316489415607979
1480	 0.316893650478442
1481	 0.317325530223474
1482	 0.317731180184671
1483	 0.318147923644499
1484	 0.318545999506686
1485	 0.318932740500949
1486	 0.319291746036048
1487	 0.319607483582984
1488	 0.319945375775393
1489	 0.32026845562159
1490	 0.320601669619254
1491	 0.320961390009417
1492	 0.321304264289933
1493	 0.321660807893411
1494	 0.322006388942746
1495	 0.322357587557754
1496	 0.322716146712952
1497	 0.323024831926447
1498	 0.323341413486054
1499	 0.323632185570313
1500	 0.323901994697558
1501	 0.324199016080679
1502	 0.324480694431284
1503	 0.324767662450587
1504	 0.325070233619348
1505	 0.325341112898645
1506	 0.325598215898593
1507	 0.325863078567621
1508	 0.326116765288196
1509	 0.326384849524737
1510	 0.326662142720431
1511	 0.326934573515266
1512	 0.327221596918968
1513	 0.327474442312482
1514	 0.327705852935332
1515	 0.327959662794249
1516	 0.328206637902443
1517	 0.328442901239231
1518	 0.328689815896284
1519	 0.32892646027855
1520	 0.329150779933313
1521	 0.32936544435801
1522	 0.329573087163675
1523	 0.329784120275744
1524	 0.329983131933004
1525	 0.33017417837227
1526	 0.330385509219883
1527	 0.330563803667296
1528	 0.330699504938862
1529	 0.330858711780506
1530	 0.331029078169613
1531	 0.331173322741417
1532	 0.331296614693407
1533	 0.331438886926321
1534	 0.331567699798964
1535	 0.331709433761378
1536	 0.331884406676203
1537	 0.332042239670194
1538	 0.332195315472101
1539	 0.332333155913433
1540	 0.332435840481506
1541	 0.332586560650353
1542	 0.33276113042791
1543	 0.332916610112326
1544	 0.333108773870223
1545	 0.33327024986807
1546	 0.333381169471039
1547	 0.333521748239723
1548	 0.333675938802753
1549	 0.333829267204245
1550	 0.333989621335138
1551	 0.334146339092977
1552	 0.334317866987875
1553	 0.334458540075296
1554	 0.334586280543354
1555	 0.334704556415497
1556	 0.334784254034897
1557	 0.334890409766927
1558	 0.334995329851731
1559	 0.335110046184083
1560	 0.33523846145193
1561	 0.335375620855825
1562	 0.335533251705058
1563	 0.335682884419804
1564	 0.335862252987651
1565	 0.335996530338262
1566	 0.336089034422848
1567	 0.336189125646563
1568	 0.3362466566452
1569	 0.336338656621186
1570	 0.336453010019233
1571	 0.33657323200315
1572	 0.336735888773502
1573	 0.33686198571263
1574	 0.336971099603966
1575	 0.337083953330299
1576	 0.337145987401906
1577	 0.337218560198794
1578	 0.337279222062479
1579	 0.337354401920379
1580	 0.337492077504738
1581	 0.337573849790079
1582	 0.337677779848772
1583	 0.337803135549406
1584	 0.337865508364415
1585	 0.337962861876152
1586	 0.33804032417496
1587	 0.338092278283654
1588	 0.338191576362946
1589	 0.33827164746979
1590	 0.338350619175292
1591	 0.338450604956206
1592	 0.338545692261174
1593	 0.338657168534971
1594	 0.338823768565587
1595	 0.338973219608197
1596	 0.339055779454857
1597	 0.339136984402918
1598	 0.339209266385229
1599	 0.339276969394393
1600	 0.339377268984033
1601	 0.339479604571789
1602	 0.339567147705868
1603	 0.339647357612864
1604	 0.339678471027317
1605	 0.339723133101893
1606	 0.339762296223714
1607	 0.33976724706562
1608	 0.339849717480819
1609	 0.339934562558872
1610	 0.339997650842386
1611	 0.340115717021467
1612	 0.340257413827186
1613	 0.340375760047743
1614	 0.340501408460636
1615	 0.340619758508499
1616	 0.340692784737224
1617	 0.340758217716458
1618	 0.340811920423876
1619	 0.340845340752426
1620	 0.340903478077748
1621	 0.340950241127539
1622	 0.341039570595463
1623	 0.341165989693652
1624	 0.341253360019712
1625	 0.341348478269835
1626	 0.341424873775313
1627	 0.341475304277581
1628	 0.341556891057083
1629	 0.341614607209587
1630	 0.341685911961812
1631	 0.341742565544919
1632	 0.34179129760307
1633	 0.341846200929387
1634	 0.341862777519609
1635	 0.341893158039775
1636	 0.341919428452378
1637	 0.341966516589579
1638	 0.342090084204682
1639	 0.342220503962328
1640	 0.342348945553123
1641	 0.342441607955761
1642	 0.342441680532004
1643	 0.342492990041922
1644	 0.342597631429902
1645	 0.342650937652619
1646	 0.342687696865037
1647	 0.34273538489795
1648	 0.342729746203556
1649	 0.342756465187539
1650	 0.342845790270167
1651	 0.342900076247495
1652	 0.342912921348464
1653	 0.342968118291715
1654	 0.343052502885518
1655	 0.343109250414966
1656	 0.343219685248725
1657	 0.343261629977575
1658	 0.343191986728639
1659	 0.343187827687766
1660	 0.343177449538416
1661	 0.343188244304704
1662	 0.343253325814263
1663	 0.343310233999015
1664	 0.343409839140504
1665	 0.34343855106558
1666	 0.343394183443888
1667	 0.343411526293295
1668	 0.343419788578159
1669	 0.343419841039309
1670	 0.343481750708374
1671	 0.343509912784929
1672	 0.343482371198249
1673	 0.343467852419368
1674	 0.343453053063208
1675	 0.343455180235446
1676	 0.343449353498557
1677	 0.343466553289442
1678	 0.343529177951145
1679	 0.343561600585944
1680	 0.343614428191085
1681	 0.343613379037721
1682	 0.343545826745267
1683	 0.343522148747367
1684	 0.343475595688577
1685	 0.34345911733826
1686	 0.343507600072522
1687	 0.34350529313342
1688	 0.343477926419151
1689	 0.343454746158381
1690	 0.34339283361396
1691	 0.343384551291772
1692	 0.343403237195269
1693	 0.343427284084443
1694	 0.343522352281166
1695	 0.343525104754781
1696	 0.343468373576468
1697	 0.34344604668215
1698	 0.343384808007537
1699	 0.343355751899413
1700	 0.343373161634631
1701	 0.343360527692487
1702	 0.3433387626639
1703	 0.343294032696929
1704	 0.343219047779358
1705	 0.343199220306236
1706	 0.343189007620497
1707	 0.343171845857718
1708	 0.343188317557432
1709	 0.34318811512421
1710	 0.343182247982448
1711	 0.343132338759052
1712	 0.343084038009146
1713	 0.343000498988476
1714	 0.342834394907029
1715	 0.342757166878625
1716	 0.342725133792651
1717	 0.342640187221723
1718	 0.342564353316946
1719	 0.342407542408136
1720	 0.342293848002226
1721	 0.342253885315458
1722	 0.342195753567069
1723	 0.342169777418698
1724	 0.34212306246994
1725	 0.341983072891788
1726	 0.341870566112364
1727	 0.341791323869538
1728	 0.34168709993165
1729	 0.341590888955991
1730	 0.341495659470792
1731	 0.341352980040573
1732	 0.341229694125338
1733	 0.341164105073834
1734	 0.341072087150835
1735	 0.340957722897359
1736	 0.340837819190099
1737	 0.340680199632586
1738	 0.340535797974251
1739	 0.340391644894119
1740	 0.340262527990036
1741	 0.340137098559769
1742	 0.340018868854374
1743	 0.339945925613793
1744	 0.339802060875243
1745	 0.339588953379439
1746	 0.339449324961368
1747	 0.339317014649616
1748	 0.33919761518535
1749	 0.339157702055638
1750	 0.339042202737425
1751	 0.338861708855693
1752	 0.338712009538963
1753	 0.338535529930101
1754	 0.338401639991278
1755	 0.33830152720121
1756	 0.338205913976867
1757	 0.338157482570417
1758	 0.338050540226637
1759	 0.337922874923334
1760	 0.337725798423116
1761	 0.337543806525287
1762	 0.33739092066811
1763	 0.337264429603576
1764	 0.337185311545244
1765	 0.337107971012504
1766	 0.336981292216339
1767	 0.336870964640312
1768	 0.336760827763739
1769	 0.33662502292455
1770	 0.336556297388134
1771	 0.336467192748823
1772	 0.336361131841229
1773	 0.336272639026485
1774	 0.336130299399091
1775	 0.336001674863307
1776	 0.335906608736326
1777	 0.335807334148636
1778	 0.335725011857856
1779	 0.335668684327658
1780	 0.33561168497023
1781	 0.335533883660357
1782	 0.335424390063076
1783	 0.33535238792189
1784	 0.335255651757976
1785	 0.335230616491374
1786	 0.335322472476651
1787	 0.335316900775958
1788	 0.335290112225541
1789	 0.33528546723576
1790	 0.335246935221402
1791	 0.335194437071508
1792	 0.335138387054118
1793	 0.335119654005693
1794	 0.335114515886053
1795	 0.335198627988116
1796	 0.335267487986347
1797	 0.335196490069686
1798	 0.335145745268022
1799	 0.335151677054962
1800	 0.335115065725217
1801	 0.33512943063024
1802	 0.335183583603088
1803	 0.335164960319631
1804	 0.335154313049409
1805	 0.335173627547635
1806	 0.335160232487307
1807	 0.33510823709337
1808	 0.335115532970501
1809	 0.335193533211702
1810	 0.335211923955782
1811	 0.335225802492936
1812	 0.335239560399473
1813	 0.335178732949228
1814	 0.33514367950879
1815	 0.335144756847604
1816	 0.335128140300104
1817	 0.335050909660676
1818	 0.335013405439156
1819	 0.33503280508673
1820	 0.335014647707092
1821	 0.33499712037043
1822	 0.334998716104998
1823	 0.33496742023191
1824	 0.334936678685615
1825	 0.334961192381863
1826	 0.334976738010496
1827	 0.334961185948063
1828	 0.334872119846394
1829	 0.334768527351093
1830	 0.334720252920198
1831	 0.319493612659364
1832	 0.31951667939887
1833	 0.319589683662195
1834	 0.319616956476733
1835	 0.319641229895954
1836	 0.319640085337227
1837	 0.319595093765529
1838	 0.319585616805669
1839	 0.319573033237571
1840	 0.319606913810028
1841	 0.319684385121341
1842	 0.319675566113572
1843	 0.319690925377646
1844	 0.319749717228162
1845	 0.319747846862106
1846	 0.319723110467353
1847	 0.319680715483185
1848	 0.319619391345198
1849	 0.319508433216624
1850	 0.31942119184373
1851	 0.319266320755821
1852	 0.319081866045513
1853	 0.31889994667944
1854	 0.31868150051018
1855	 0.318410135692846
1856	 0.318148648432673
1857	 0.317913803161839
1858	 0.317615602356835
1859	 0.317304399675834
1860	 0.316917863955742
1861	 0.316521792788534
1862	 0.31597385735145
1863	 0.315279217607668
1864	 0.314561906472683
1865	 0.313755885617686
1866	 0.312809860185014
1867	 0.311860678175949
1868	 0.31088630840326
1869	 0.309795522183853
1870	 0.308647534872695
1871	 0.307427157420186
1872	 0.306126267911403
1873	 0.304778939966336
1874	 0.303367267069478
1875	 0.301881662299615
1876	 0.300324373109107
1877	 0.298676792759227
1878	 0.296927370843311
1879	 0.295077873279996
1880	 0.293159309195973
1881	 0.291173229054257
1882	 0.289165898524622
1883	 0.28697891553386
1884	 0.284627097638164
1885	 0.28220828631498
1886	 0.279552980544719
1887	 0.276832306704205
1888	 0.274055720911287
1889	 0.271143010449369
1890	 0.268041510312993
1891	 0.264984604328398
1892	 0.261776138056591
1893	 0.25844243227328
1894	 0.255190303664197
1895	 0.251743674637979
1896	 0.248320205923306
1897	 0.245075407256386
1898	 0.24184234560899
1899	 0.238760074450601
1900	 0.235815424985369
1901	 0.233020034294077
1902	 0.230316276900462
1903	 0.227876222941327
1904	 0.225453972565722
1905	 0.223176802877206
1906	 0.221141177775027
1907	 0.21925097046224
1908	 0.217762297451645
1909	 0.216546900662496
1910	 0.215506132477891
1911	 0.214603424693895
1912	 0.213892910599735
1913	 0.213216888247936
1914	 0.212717460831525
1915	 0.212380605812802
1916	 0.212164826625111
1917	 0.212088836486501
1918	 0.212085420631158
1919	 0.212181687627527
1920	 0.212378266724229
1921	 0.212644312770215
1922	 0.212972468812008
1923	 0.213293070110187
1924	 0.213649774601198
1925	 0.214000725783799
1926	 0.21438318281874
1927	 0.214756039507839
1928	 0.215234166981874
1929	 0.215789687464727
1930	 0.21638285244589
1931	 0.216985199437412
1932	 0.217495321961003
1933	 0.218052584574147
1934	 0.21857749096642
1935	 0.219057031429062
1936	 0.219506053708233
1937	 0.220028453479338
1938	 0.220492611117727
1939	 0.220975958938132
1940	 0.221519466057159
1941	 0.222111922217397
1942	 0.2227537018486
1943	 0.223335050203291
1944	 0.223913754405689
1945	 0.224467424059119
1946	 0.224944344665716
1947	 0.225467976229694
1948	 0.225988793363368
1949	 0.226555962339491
1950	 0.227152220012106
1951	 0.227794544993788
1952	 0.228400199469117
1953	 0.229025010392877
1954	 0.229649554424014
1955	 0.230258096515984
1956	 0.230868169809613
1957	 0.231429231795952
1958	 0.231978628103229
1959	 0.232413378284605
1960	 0.23299115126353
1961	 0.233627706135088
1962	 0.234274074567056
1963	 0.234976751440394
1964	 0.235725441041802
1965	 0.2363583014604
1966	 0.236950310206175
1967	 0.237546787306443
1968	 0.238162785740154
1969	 0.238842690890445
1970	 0.239616295277035
1971	 0.240330146524593
1972	 0.241055626330267
1973	 0.241764375408481
1974	 0.242474419292813
1975	 0.243096172640929
1976	 0.243703996904136
1977	 0.244474474255739
1978	 0.245123572305602
1979	 0.245795389180824
1980	 0.246545709203148
1981	 0.247169325421149
1982	 0.247865765137466
1983	 0.248591759830269
1984	 0.249300970893961
1985	 0.250018858779781
1986	 0.250767732822812
1987	 0.251528634719375
1988	 0.25227551268267
1989	 0.253013892672102
1990	 0.253770072298473
1991	 0.254483838943247
1992	 0.255156035902365
1993	 0.255936775006905
1994	 0.256719047369006
1995	 0.257466478839044
1996	 0.258237442393571
1997	 0.2589674361877
1998	 0.259642522513652
1999	 0.260327970757419
2000	 0.261016646914439
2001	 0.261655611943425
2002	 0.262297131052169
2003	 0.262918605176562
2004	 0.263567583695345
2005	 0.26433439578581
2006	 0.265073682483119
2007	 0.265825792948075
2008	 0.266564159698368
2009	 0.267292849485251
2010	 0.267959512852459
2011	 0.2686294251926
2012	 0.269263449937202
2013	 0.269780882589922
2014	 0.270384903943719
2015	 0.271028209070683
2016	 0.271659413382983
2017	 0.2722641178362
2018	 0.272925160460787
2019	 0.273506724272112
2020	 0.273982031352787
2021	 0.27454767253524
2022	 0.27517614279083
2023	 0.275675931509999
2024	 0.276142817216085
2025	 0.276637647391323
2026	 0.277063217808923
2027	 0.277483606337728
2028	 0.277927083950668
2029	 0.278358888613148
2030	 0.278735597116707
2031	 0.279212236455774
2032	 0.279777967318716
2033	 0.280327583141174
2034	 0.280905620639534
2035	 0.281390859906247
2036	 0.281805863310316
2037	 0.282133569331591
2038	 0.282491078648433
2039	 0.28274693201577
2040	 0.283095458849705
2041	 0.283515480011272
2042	 0.283903719159834
2043	 0.284324253309774
2044	 0.284691471208881
2045	 0.285047920010225
2046	 0.285342343474202
2047	 0.285667734094551
2048	 0.286061219776161
2049	 0.28641052399078
2050	 0.286797326890879
2051	 0.287152764383322
2052	 0.287473469858994
2053	 0.287784445035898
2054	 0.28807952717464
2055	 0.288400772660727
2056	 0.288723609546726
2057	 0.289058626213763
2058	 0.289425130238715
2059	 0.289766332949543
2060	 0.290118889044101
2061	 0.290414012629405
2062	 0.290729146041527
2063	 0.29100465160853
2064	 0.291174008271916
2065	 0.291385626551395
2066	 0.291646527283049
2067	 0.291895394796888
2068	 0.292207584909179
2069	 0.292666168333214
2070	 0.292992193264319
2071	 0.29325595922415
2072	 0.293547108953883
2073	 0.293764503361707
2074	 0.294047356683332
2075	 0.294401932450951
2076	 0.294744952901698
2077	 0.295023079322332
2078	 0.295292929600841
2079	 0.295539315756888
2080	 0.29579248811628
2081	 0.296038257738912
2082	 0.296292241663501
2083	 0.296569701778171
2084	 0.296837321945063
2085	 0.297118361405336
2086	 0.297471627319994
2087	 0.297750738520742
2088	 0.297998321236263
2089	 0.298217326095379
2090	 0.298399558839406
2091	 0.298568723856375
2092	 0.298689470905809
2093	 0.298818170106864
2094	 0.298959965697743
2095	 0.299168575864199
2096	 0.299449482921237
2097	 0.299741338261946
2098	 0.300023631471594
2099	 0.300324277361239
2100	 0.300632038653123
2101	 0.300992105284064
2102	 0.301240022750013
2103	 0.301449430867158
2104	 0.301627185574343
2105	 0.30166441647764
2106	 0.301802000342844
2107	 0.302032741559716
2108	 0.302189546257886
2109	 0.302322067709681
2110	 0.302463090873285
2111	 0.302567575873982
2112	 0.30267845171043
2113	 0.302890821233348
2114	 0.303139406793141
2115	 0.303322305491402
2116	 0.303492134493657
2117	 0.30366934908323
2118	 0.303776451030958
2119	 0.303962115284907
2120	 0.304244561299753
2121	 0.304435243979849
2122	 0.304623129714102
2123	 0.304792274463394
2124	 0.30489915684053
2125	 0.305019192942585
2126	 0.305174286092938
2127	 0.305258858823883
2128	 0.305300023936883
2129	 0.305319980322506
2130	 0.305355701983362
2131	 0.305348401246536
2132	 0.305362536318989
2133	 0.30539620100871
2134	 0.305412307976574
2135	 0.305482779730804
2136	 0.305388811279443
2137	 0.305215698399705
2138	 0.305029267028906
2139	 0.304739010407318
2140	 0.304430096603925
2141	 0.304140716230644
2142	 0.303781096539809
2143	 0.303283491089807
2144	 0.30284668084133
2145	 0.302458305537164
2146	 0.301983019516213
2147	 0.301486192393147
2148	 0.30094508068142
2149	 0.300348610790163
2150	 0.299704676530194
2151	 0.299043377340448
2152	 0.298415721220512
2153	 0.297859266571517
2154	 0.297359847075145
2155	 0.296807124533799
2156	 0.296318835760871
2157	 0.295788198885139
2158	 0.295129211298014
2159	 0.294623025581627
2160	 0.29419016184453
2161	 0.293771422182647
2162	 0.293442476908485
2163	 0.293071471776082
2164	 0.292661225660994
2165	 0.292346758739353
2166	 0.292098559544788
2167	 0.291833929114494
2168	 0.291634913038943
2169	 0.291387467121096
2170	 0.291203867909316
2171	 0.291083020075367
2172	 0.2909578507165
2173	 0.290870958363491
2174	 0.290696748441842
2175	 0.290424563598852
2176	 0.290197518696662
2177	 0.289982431065601
2178	 0.289726570477139
2179	 0.289482117950044
2180	 0.28913900411763
2181	 0.288692259123431
2182	 0.288303893930139
2183	 0.287951948288266
2184	 0.287487179763045
2185	 0.286992740889649
2186	 0.286459475794005
2187	 0.285769699127133
2188	 0.285131236813203
2189	 0.284475095303968
2190	 0.28391843301108
2191	 0.283327038180151
2192	 0.282678982983151
2193	 0.281990875449263
2194	 0.281202369879581
2195	 0.280383330536903
2196	 0.279502334345173
2197	 0.278549195072822
2198	 0.277598112393309
2199	 0.276479209113303
2200	 0.27517895142478
2201	 0.273921057660019
2202	 0.272466345922236
2203	 0.271283019557659
2204	 0.270063612208033
2205	 0.269199377303939
2206	 0.26849555352856
2207	 0.268106731582646
2208	 0.268005597402625
2209	 0.268156312348652
2210	 0.268610673316928
2211	 0.269279555509216
2212	 0.27025106490457
2213	 0.271360562903333
2214	 0.272811529114816
2215	 0.27423626858537
2216	 0.27581829339563
2217	 0.27742344035399
2218	 0.279043902442344
2219	 0.280441730652364
2220	 0.281685035525664
2221	 0.282711282870241
2222	 0.283506231241851
2223	 0.284144262963403
2224	 0.284797613386827
2225	 0.285424727695462
2226	 0.285833204083763
2227	 0.286145553408847
2228	 0.286354668862102
2229	 0.286308899637534
2230	 0.286352666308366
2231	 0.286334439231315
2232	 0.286370652093483
2233	 0.286402601657159
2234	 0.286409365088917
2235	 0.286492893867308
2236	 0.286457522195025
2237	 0.286336186288164
2238	 0.286249146525161
2239	 0.286108917426784
2240	 0.285964205266014
2241	 0.285754353052723
2242	 0.28563266235439
2243	 0.285493657927802
2244	 0.285476095302114
2245	 0.285628341862625
2246	 0.285756918817175
2247	 0.285819962197599
2248	 0.285782025932816
2249	 0.285718888012745
2250	 0.285703285756144
2251	 0.28566519346891
2252	 0.285644173269447
2253	 0.285542938004494
2254	 0.285350368417988
2255	 0.285279976869011
2256	 0.285313305412657
2257	 0.285308961227238
2258	 0.28538162152776
2259	 0.28534483377037
2260	 0.285206646723301
2261	 0.285183419143668
2262	 0.285241219849217
2263	 0.285236162507108
2264	 0.285262501888952
2265	 0.285198964903302
2266	 0.285018003712413
2267	 0.284848154008773
2268	 0.284702925158848
2269	 0.284534347998891
2270	 0.284319799825734
2271	 0.284076110139423
2272	 0.28379038543954
2273	 0.283473783569115
2274	 0.283126493968979
2275	 0.28282924649387
2276	 0.282502658352189
2277	 0.282236285771595
2278	 0.282044938628595
2279	 0.281777910534848
2280	 0.281580752648186
2281	 0.281250367578494
2282	 0.28080026041679
2283	 0.280318222710588
2284	 0.279965868141816
2285	 0.279430197837434
2286	 0.278967706284947
2287	 0.278655002463257
2288	 0.278069497503459
2289	 0.277703142909014
2290	 0.277442619993637
2291	 0.277031798169256
2292	 0.276734310921614
2293	 0.27630892016778
2294	 0.275997467456779
2295	 0.275881181897832
2296	 0.275800914483611
2297	 0.27574430702757
2298	 0.275607933203064
2299	 0.275352653480801
2300	 0.274913170235561
2301	 0.274584894425026
2302	 0.2742797644868
2303	 0.273940034505933
2304	 0.273666587702099
2305	 0.27353011700979
2306	 0.273248763946711
2307	 0.272925107157231
2308	 0.272543181793173
2309	 0.272061011452482
2310	 0.271646051902857
2311	 0.271164878405533
2312	 0.270834620954848
2313	 0.270677022344509
2314	 0.270377580112698
2315	 0.269947341523022
2316	 0.269772131643727
2317	 0.269663320163448
2318	 0.269528367687061
2319	 0.26967069532191
2320	 0.269683466942287
2321	 0.269467709618452
2322	 0.269478495441358
2323	 0.269596486787338
2324	 0.26968659227169
2325	 0.269989981830863
2326	 0.270032477097806
2327	 0.270006386563902
2328	 0.269898158846176
2329	 0.269467800925133
2330	 0.269274154101551
2331	 0.269079448677425
2332	 0.269012556629653
2333	 0.26920788621384
2334	 0.269264417030801
2335	 0.269389334164651
2336	 0.269374155956907
2337	 0.269238820791404
2338	 0.26902516164103
2339	 0.268642339093334
2340	 0.26834401606671
2341	 0.268048088161293
2342	 0.267720761787614
2343	 0.267383480803716
2344	 0.267088422990483
2345	 0.266619811700643
2346	 0.266229465878237
2347	 0.265802974451858
2348	 0.265029721005889
2349	 0.264288091786483
2350	 0.263855621826704
2351	 0.263501929388098
2352	 0.263329079899099
2353	 0.263279370468071
2354	 0.262927212008273
2355	 0.262347148686151
2356	 0.262107970673114
2357	 0.261978883018406
2358	 0.26155468794455
2359	 0.261548093349244
2360	 0.261443847186717
2361	 0.260942798346382
2362	 0.260715427512837
2363	 0.260478046824217
2364	 0.260042817623866
2365	 0.259747465797855
2366	 0.259669106068806
2367	 0.259018812108383
2368	 0.258350598233995
2369	 0.258010335664768
2370	 0.257283421797126
2371	 0.256697858576383
2372	 0.256229328911963
2373	 0.255441304507978
2374	 0.254567043449799
2375	 0.253985458630238
2376	 0.253558355071699
2377	 0.253126567394417
2378	 0.252880758020124
2379	 0.252405904526877
2380	 0.251768077204991
2381	 0.251509823843145
2382	 0.251225121710652
2383	 0.251134049822478
2384	 0.251214349447911
2385	 0.251057055322025
2386	 0.250738731745854
2387	 0.250017736424125
2388	 0.24954214879017
2389	 0.248802119098497
2390	 0.247854308907944
2391	 0.247666032688534
2392	 0.247232481213594
2393	 0.246688649714875
2394	 0.246559483792054
2395	 0.246578043337129
2396	 0.246338546309732
2397	 0.246035339362988
2398	 0.24584807533432
2399	 0.245117953691622
2400	 0.24440505911258
2401	 0.24413941014577
2402	 0.243937916315063
2403	 0.243910777378984
2404	 0.243962994983265
2405	 0.243711296783098
2406	 0.243504316376801
2407	 0.243250006255067
2408	 0.24282403548757
2409	 0.242338217332577
2410	 0.241332105914483
2411	 0.240219577539997
2412	 0.23944063073252
2413	 0.239048174581521
2414	 0.239104841996137
2415	 0.239039230798446
2416	 0.238701035432621
2417	 0.238440979191449
2418	 0.23800341656437
2419	 0.237484962599418
2420	 0.23666728863416
2421	 0.235432247492781
2422	 0.234462223511474
2423	 0.233637289096273
2424	 0.233094092981806
2425	 0.232996976504171
2426	 0.232792654906837
2427	 0.232671997133578
2428	 0.232504018076722
2429	 0.232520373291926
2430	 0.231791597126296
2431	 0.23067587079909
2432	 0.229845390444622
2433	 0.228528201210257
2434	 0.2278330575868
2435	 0.227507286867519
2436	 0.227087414604477
2437	 0.227069712454515
2438	 0.226042714473911
2439	 0.225177933078998
2440	 0.224511044727273
2441	 0.224098232308719
2442	 0.223219498664792
2443	 0.222452792280829
2444	 0.222130558498015
2445	 0.220746289941669
2446	 0.219628596004661
2447	 0.219356881309088
2448	 0.219115025236953
2449	 0.219322529096459
2450	 0.219797788834245
2451	 0.220346240425165
2452	 0.220233200915898
2453	 0.219388527270132
2454	 0.218764753653832
2455	 0.218556755981988
2456	 0.217518732340613
2457	 0.216157785782202
2458	 0.215128734425633
2459	 0.213688763372681
2460	 0.212686876031748
2461	 0.21301733125884
2462	 0.213625884429865
2463	 0.21347170711676
2464	 0.213634673592759
2465	 0.213263763508084
2466	 0.212555591161205
2467	 0.212396565464501
2468	 0.211633961802444
2469	 0.211292652356801
2470	 0.210694189378676
2471	 0.209664132277553
2472	 0.209583529738539
2473	 0.20875796368403
2474	 0.20770573469736
2475	 0.207289575840621
2476	 0.206355734682027
2477	 0.20579044833377
2478	 0.206462991869065
2479	 0.207210770513133
2480	 0.20659709519886
2481	 0.205851497768242
2482	 0.20572243726195
2483	 0.205166175938438
2484	 0.205188997061317
2485	 0.205546866126689
2486	 0.205178039203629
2487	 0.204322572259704
2488	 0.203457303639024
2489	 0.202821648524806
2490	 0.201648861736411
2491	 0.20077868767301
2492	 0.201466097710458
2493	 0.201621407983687
2494	 0.200801894774548
2495	 0.200166638390712
2496	 0.198377377179472
2497	 0.196526160550306
2498	 0.19651224860337
2499	 0.197619776816523
2500	 0.199264554667485
