Wavelength	signature0006.asd
350	 0.115951920329792
351	 0.118962326949556
352	 0.122344430876796
353	 0.125912499110355
354	 0.128306786729316
355	 0.108801613560173
356	 0.110868341748181
357	 0.127388163030529
358	 0.116925846767537
359	 0.113663052989128
360	 0.119036384744741
361	 0.125457793811742
362	 0.120133232623649
363	 0.113596453794987
364	 0.113885825239109
365	 0.121239322306173
366	 0.119858343621291
367	 0.116768244357119
368	 0.115898778458256
369	 0.118108917637904
370	 0.115480651872511
371	 0.113618585981627
372	 0.115192103830448
373	 0.11927400872709
374	 0.114655104589525
375	 0.112557189355927
376	 0.117164678511922
377	 0.121837109247948
378	 0.116085116936255
379	 0.112299842289137
380	 0.118071652015008
381	 0.12226682579901
382	 0.118980184440209
383	 0.113377819067073
384	 0.112959149039777
385	 0.119082916566124
386	 0.118486240420874
387	 0.114228181460707
388	 0.117219874953057
389	 0.119236733985921
390	 0.11892591632223
391	 0.118105641365911
392	 0.12085392827183
393	 0.121544241340398
394	 0.119437621766114
395	 0.116774295796491
396	 0.120100494112173
397	 0.121855782024663
398	 0.121006849516924
399	 0.119243348341846
400	 0.119533905859766
401	 0.120513681029714
402	 0.12082364055185
403	 0.119789139888286
404	 0.121331473977782
405	 0.122009597128185
406	 0.120727720827531
407	 0.120185667163465
408	 0.121669211808582
409	 0.122558291452241
410	 0.121185283794303
411	 0.119991796422813
412	 0.121453109156774
413	 0.122894585819671
414	 0.121209668304362
415	 0.122441625756397
416	 0.123766621152928
417	 0.123957669044998
418	 0.123562684124254
419	 0.121951064493806
420	 0.122106418861803
421	 0.124266831213884
422	 0.123127768921122
423	 0.123156180548165
424	 0.123992642392105
425	 0.124276546462614
426	 0.12416457551257
427	 0.124556545770368
428	 0.125081254790232
429	 0.124812264361805
430	 0.125185597702591
431	 0.1258609836572
432	 0.1265304147448
433	 0.12720423554082
434	 0.1270771399141
435	 0.126939096563361
436	 0.127447190479849
437	 0.127819017843463
438	 0.127775449695842
439	 0.127850849478046
440	 0.12871154057078
441	 0.129106532139257
442	 0.129492871161853
443	 0.129931857844704
444	 0.12995071340953
445	 0.130570065543815
446	 0.130902109460283
447	 0.130678189979867
448	 0.132209429653761
449	 0.132801186688347
450	 0.132273750698708
451	 0.131711207065639
452	 0.132997603106733
453	 0.133837744126778
454	 0.13365462019246
455	 0.133711832504907
456	 0.134306797849058
457	 0.13463844179648
458	 0.134318438837607
459	 0.134198563005388
460	 0.134659382450643
461	 0.135277868105768
462	 0.135482772233896
463	 0.135681388080036
464	 0.135876042477604
465	 0.136041919246582
466	 0.136148548343768
467	 0.136205049383633
468	 0.136610007359993
469	 0.137245273898872
470	 0.136851283030127
471	 0.13707769191341
472	 0.137701730039028
473	 0.137995546400112
474	 0.137922775928725
475	 0.138066711193921
476	 0.138559272816828
477	 0.139091076596759
478	 0.138724308458953
479	 0.138662917510739
480	 0.139437501702435
481	 0.139854319497601
482	 0.139636021064949
483	 0.139557127486327
484	 0.140318486812795
485	 0.140748141831118
486	 0.140837136733244
487	 0.140993147319446
488	 0.141777798946862
489	 0.142014663947453
490	 0.141993391458962
491	 0.142141345255116
492	 0.142744872416987
493	 0.143390366901751
494	 0.143586477238933
495	 0.143219712772932
496	 0.143782371200333
497	 0.144299379736998
498	 0.144540315038319
499	 0.144908342190611
500	 0.145303400117579
501	 0.145800799225436
502	 0.146307366654138
503	 0.146340926947981
504	 0.146658755434203
505	 0.147114400238106
506	 0.147341562984536
507	 0.147365307358157
508	 0.148006185648063
509	 0.148915178780681
510	 0.148887045228626
511	 0.149165647947532
512	 0.149589448406662
513	 0.149968238122928
514	 0.150540592116246
515	 0.151146579109049
516	 0.151512429215366
517	 0.151536168458318
518	 0.152176201469488
519	 0.152619829154313
520	 0.152823992173409
521	 0.153494078784087
522	 0.153985969905301
523	 0.154299024166122
524	 0.154570861070855
525	 0.154968278166691
526	 0.15542472347312
527	 0.155952642927374
528	 0.156561456303532
529	 0.157092610732499
530	 0.157592310080874
531	 0.158073054473846
532	 0.158502897430801
533	 0.159232784682844
534	 0.159824150019974
535	 0.160044114689109
536	 0.160636074595267
537	 0.161309172740392
538	 0.161959309682384
539	 0.162577915025863
540	 0.163219591852688
541	 0.163805865813837
542	 0.164364906375273
543	 0.165064700219861
544	 0.165800236138796
545	 0.166630430976373
546	 0.167565307367283
547	 0.168339863362072
548	 0.169134803112976
549	 0.169988776405992
550	 0.170857224091726
551	 0.171767034911078
552	 0.172805234709238
553	 0.173937604650271
554	 0.174933736296398
555	 0.175898736332477
556	 0.176987391098309
557	 0.178258911382137
558	 0.179329750732359
559	 0.18033198674714
560	 0.18142965460619
561	 0.182752609026679
562	 0.183828193368687
563	 0.184829751556548
564	 0.185932179987676
565	 0.187112530467297
566	 0.188325668911326
567	 0.189547345657253
568	 0.190788859219656
569	 0.192216598449766
570	 0.193428651040244
571	 0.194437189080474
572	 0.195668205208385
573	 0.196980554133575
574	 0.198109784709542
575	 0.199050510329693
576	 0.200505618654836
577	 0.201927731580618
578	 0.203217422098663
579	 0.204480098124351
580	 0.205824047617897
581	 0.207163868374564
582	 0.208410483367106
583	 0.209491194657626
584	 0.21059837654021
585	 0.211795315571538
586	 0.213009144987035
587	 0.213840344823966
588	 0.21492514127045
589	 0.216180030051849
590	 0.217166485997387
591	 0.21817347395246
592	 0.219262474482779
593	 0.220389074265334
594	 0.221383061140804
595	 0.22225835641126
596	 0.223129114165349
597	 0.224073690171471
598	 0.224947266782488
599	 0.225689639466571
600	 0.226393325088298
601	 0.227232473711983
602	 0.228047048255674
603	 0.228811918352526
604	 0.229552658379448
605	 0.230356021423331
606	 0.230955309288027
607	 0.231524514303061
608	 0.232275673974245
609	 0.232846929929337
610	 0.233342216862151
611	 0.233902021389549
612	 0.23465015951925
613	 0.235218355368488
614	 0.235700580987247
615	 0.236210830701853
616	 0.236683430556205
617	 0.237247997202696
618	 0.237754147169164
619	 0.238043511398649
620	 0.2386341879998
621	 0.239210811873208
622	 0.239626059722261
623	 0.239992071753532
624	 0.240494952149233
625	 0.240970295273847
626	 0.241306952898007
627	 0.241788945193725
628	 0.242211972399899
629	 0.242586212536095
630	 0.243005801683606
631	 0.24329749748574
632	 0.243636341933581
633	 0.244122714221504
634	 0.244714250270352
635	 0.245058787263909
636	 0.245354010764939
637	 0.24581968903915
638	 0.246221402835233
639	 0.246553082371301
640	 0.246933610306552
641	 0.247506742108409
642	 0.247869221228662
643	 0.248208506823326
644	 0.248648678385412
645	 0.249097861206177
646	 0.249447387098799
647	 0.249768112719233
648	 0.250154297740504
649	 0.250532652061005
650	 0.25100743827726
651	 0.251481171680646
652	 0.251749692967813
653	 0.252261445906693
654	 0.25272962847803
655	 0.252996102468857
656	 0.253333332625003
657	 0.253840199275879
658	 0.254367798961721
659	 0.254728855870207
660	 0.25500993631244
661	 0.255475280619762
662	 0.256058544432594
663	 0.256430484198922
664	 0.25687129615058
665	 0.257406406469121
666	 0.257950986637969
667	 0.258254685228202
668	 0.25871640454879
669	 0.25929736755691
670	 0.259801753314104
671	 0.260150218618163
672	 0.260566785345628
673	 0.261122646789968
674	 0.261713634164866
675	 0.262085744692072
676	 0.262442835869844
677	 0.262934317296952
678	 0.263371888737565
679	 0.263773824719673
680	 0.264166247455362
681	 0.264599723680623
682	 0.265227436767044
683	 0.265677118232034
684	 0.265945992314331
685	 0.266427028803563
686	 0.26697398991094
687	 0.267449639554289
688	 0.26782209920294
689	 0.268320857333561
690	 0.268816209493831
691	 0.269258508197156
692	 0.269664579640749
693	 0.270247270149698
694	 0.27075811134085
695	 0.271119603370269
696	 0.271473226202041
697	 0.272009117562508
698	 0.272547822798319
699	 0.272936033911344
700	 0.273269309356526
701	 0.27369723895247
702	 0.274219359880532
703	 0.274738631095287
704	 0.275058389825482
705	 0.275412012791929
706	 0.27585331735972
707	 0.276223705812843
708	 0.276611835627268
709	 0.277060321321057
710	 0.277549238368748
711	 0.277936252362558
712	 0.278222480713118
713	 0.278558613116292
714	 0.279077470933253
715	 0.279436389660289
716	 0.279795699545543
717	 0.280226496749943
718	 0.280676738955718
719	 0.281042652201476
720	 0.281361368896807
721	 0.281687750859422
722	 0.28205066170033
723	 0.282406984514337
724	 0.282749681549846
725	 0.283094121445166
726	 0.283513305934261
727	 0.283790898614311
728	 0.283992253635273
729	 0.284408103012172
730	 0.284724730678087
731	 0.284975986979032
732	 0.285226370960039
733	 0.285481762586857
734	 0.285813500055829
735	 0.286116964703313
736	 0.286296158786691
737	 0.286552877264051
738	 0.286820856443952
739	 0.287054563800034
740	 0.287238757418867
741	 0.287436163061598
742	 0.287716117687249
743	 0.288029505785047
744	 0.288143878971651
745	 0.288367327363858
746	 0.288636363737688
747	 0.288818493808207
748	 0.288909731250827
749	 0.289074562854061
750	 0.289291797384288
751	 0.289446279272799
752	 0.289615292947381
753	 0.28980788841892
754	 0.289989429176104
755	 0.290085834880181
756	 0.290203337307523
757	 0.290398283396351
758	 0.290626286879553
759	 0.290613615411075
760	 0.290603913113636
761	 0.290683440028439
762	 0.290836503522893
763	 0.290882495702517
764	 0.290959287425147
765	 0.291079466529672
766	 0.291134251801026
767	 0.291123803866405
768	 0.29115380806584
769	 0.291272130922271
770	 0.29140213182408
771	 0.291405753781267
772	 0.29139114833501
773	 0.291477955096394
774	 0.291549362219008
775	 0.291494410145066
776	 0.291428254604514
777	 0.291549364204263
778	 0.291649635845066
779	 0.291606776175847
780	 0.291473477437415
781	 0.291480602010505
782	 0.291596746725729
783	 0.29161845078765
784	 0.291494461935203
785	 0.291602850150941
786	 0.291587802481824
787	 0.291500186125635
788	 0.291491182773767
789	 0.291497447336034
790	 0.29150024326931
791	 0.291462663729608
792	 0.291365087143962
793	 0.291433031018651
794	 0.29143412256013
795	 0.291277327378505
796	 0.291120859265243
797	 0.291186674030301
798	 0.291242404769177
799	 0.291107721040052
800	 0.29096701559938
801	 0.290954195854568
802	 0.290971140124088
803	 0.290864362597177
804	 0.290662517159779
805	 0.290618225188341
806	 0.290676341282307
807	 0.290589836347218
808	 0.290425664131122
809	 0.29036552488818
810	 0.290379615776606
811	 0.290191001226497
812	 0.290178321548774
813	 0.290187712615461
814	 0.290068388286132
815	 0.289907172497282
816	 0.289776698390453
817	 0.289761308081956
818	 0.289841381067306
819	 0.289628787388443
820	 0.289497519001517
821	 0.289510010354832
822	 0.289523991235944
823	 0.28937967010179
824	 0.289290581654164
825	 0.28931525136489
826	 0.289320692079603
827	 0.289120834784244
828	 0.288982898863649
829	 0.289013133470851
830	 0.288947944375913
831	 0.288886691602087
832	 0.288813401350126
833	 0.288702816871062
834	 0.288564601662063
835	 0.288464342323346
836	 0.288416745817219
837	 0.288402906536045
838	 0.288385605746083
839	 0.28823700691126
840	 0.288056912819851
841	 0.288048978076994
842	 0.288060811623663
843	 0.288042705402573
844	 0.287976613954955
845	 0.28787724614178
846	 0.287849259742652
847	 0.287760814467082
848	 0.287599669793097
849	 0.287586726077463
850	 0.287653453716203
851	 0.287599614014878
852	 0.287390860721285
853	 0.287472926461645
854	 0.287418395593697
855	 0.287284747734768
856	 0.287243480066896
857	 0.287253230978745
858	 0.287254846945897
859	 0.287201368997323
860	 0.287101239057119
861	 0.287193566531596
862	 0.287229926837733
863	 0.287143337622711
864	 0.287045106875368
865	 0.287112912656127
866	 0.287075097163535
867	 0.286927492619468
868	 0.28697677488876
869	 0.286980192236502
870	 0.286926500847727
871	 0.286881869025663
872	 0.286961322684635
873	 0.286970293103967
874	 0.286948904655729
875	 0.28695692731797
876	 0.286971664082544
877	 0.287042140181751
878	 0.28705772647152
879	 0.286978467099338
880	 0.28712960791086
881	 0.287151577740998
882	 0.287059969283369
883	 0.287046927309236
884	 0.287374298168791
885	 0.287517815433552
886	 0.287403585354507
887	 0.287256926222717
888	 0.287363765337547
889	 0.287470946274375
890	 0.287477517133589
891	 0.287452757883377
892	 0.287663334586642
893	 0.287776387936686
894	 0.287699958951082
895	 0.287639362991446
896	 0.287947767605404
897	 0.288120975707757
898	 0.288038551579997
899	 0.288117530919919
900	 0.28828204578349
901	 0.288349034949717
902	 0.288295085409765
903	 0.28834135805905
904	 0.288587616136745
905	 0.288782561259885
906	 0.288778865208648
907	 0.288731280615482
908	 0.288871657962614
909	 0.289018554336532
910	 0.289059671523575
911	 0.289228157025869
912	 0.289608138684834
913	 0.289807282839962
914	 0.289645561265622
915	 0.289739007779892
916	 0.289978513199015
917	 0.290149218977636
918	 0.290153746517305
919	 0.290337906912979
920	 0.290574808042927
921	 0.290660326369263
922	 0.290567788251329
923	 0.290920641013628
924	 0.291112566842656
925	 0.291096364927958
926	 0.291090642516529
927	 0.291421042764515
928	 0.29174353864399
929	 0.291866296989845
930	 0.291795853563006
931	 0.291933263933195
932	 0.292259203601597
933	 0.292508824484568
934	 0.29249413235781
935	 0.292773618373657
936	 0.292909794928867
937	 0.292912584658896
938	 0.292998110710939
939	 0.293239144522925
940	 0.293625733245469
941	 0.293818384673691
942	 0.293628619076408
943	 0.294116653032407
944	 0.294378226501291
945	 0.294338026480631
946	 0.294367801243072
947	 0.294744150782448
948	 0.294954318998941
949	 0.294942573142338
950	 0.294961963550493
951	 0.295457010455243
952	 0.29573540630556
953	 0.295890440821273
954	 0.296233246263148
955	 0.296310673507252
956	 0.296478269057153
957	 0.296693001702024
958	 0.296825267996561
959	 0.297161987692963
960	 0.297239942434872
961	 0.297373657533351
962	 0.297935753842091
963	 0.298390841460358
964	 0.298483832498014
965	 0.298521577803543
966	 0.298849591201444
967	 0.299226599540191
968	 0.299304423876562
969	 0.299243718327607
970	 0.299466160653628
971	 0.300585327264098
972	 0.300523115007384
973	 0.300172364673295
974	 0.30063418209417
975	 0.30127774782017
976	 0.301228207728387
977	 0.301188335881942
978	 0.301714262250457
979	 0.302209963430947
980	 0.30233620425404
981	 0.302489619219154
982	 0.302894918127644
983	 0.303205564779577
984	 0.302999043013965
985	 0.303137758734669
986	 0.303873325404181
987	 0.304397139432701
988	 0.304659930672228
989	 0.304619486641004
990	 0.304649084543278
991	 0.305253494463108
992	 0.304872513293354
993	 0.305119072450657
994	 0.30606715633151
995	 0.306416662144358
996	 0.3060068574701
997	 0.306413178609318
998	 0.307260163304201
999	 0.307281827250357
1000	 0.307157001437669
1001	 0.305497243753613
1002	 0.305658947284787
1003	 0.305930257863609
1004	 0.306125094262293
1005	 0.306216051681676
1006	 0.306390957482164
1007	 0.306599388460321
1008	 0.306828495356757
1009	 0.307056384524747
1010	 0.307352998087875
1011	 0.307620639399698
1012	 0.307789344217472
1013	 0.308027981839606
1014	 0.308301009691662
1015	 0.308435994383906
1016	 0.308593089215876
1017	 0.308726105726226
1018	 0.308912351169009
1019	 0.309276442654078
1020	 0.309623198076416
1021	 0.30980817721783
1022	 0.309885547659789
1023	 0.3100264132582
1024	 0.310165195190161
1025	 0.310283207656839
1026	 0.310423586250464
1027	 0.31066630936117
1028	 0.31084184114666
1029	 0.310956737467646
1030	 0.311211441316385
1031	 0.31152232176688
1032	 0.311696985151511
1033	 0.311789146972364
1034	 0.311889494540167
1035	 0.31195371677549
1036	 0.311989357207192
1037	 0.312180107867992
1038	 0.312419784822627
1039	 0.312763691823088
1040	 0.312997480380383
1041	 0.313269788861367
1042	 0.313489101643282
1043	 0.313596066243241
1044	 0.313766683476973
1045	 0.313959186640573
1046	 0.314198622515418
1047	 0.314368728234973
1048	 0.314527898414857
1049	 0.314839573959885
1050	 0.315119162177723
1051	 0.315329052120088
1052	 0.315562523636385
1053	 0.31576095406066
1054	 0.315876755010526
1055	 0.315918707018532
1056	 0.316141110440005
1057	 0.316419013434785
1058	 0.316619830736631
1059	 0.316978289537277
1060	 0.317234944339172
1061	 0.317368775050848
1062	 0.317634961346141
1063	 0.317834257775679
1064	 0.318076580800882
1065	 0.318431791512032
1066	 0.318696366898307
1067	 0.318875463339456
1068	 0.319091434251772
1069	 0.319284318373218
1070	 0.319487927218888
1071	 0.319701064829309
1072	 0.319945754037088
1073	 0.320123341431437
1074	 0.320301632665584
1075	 0.320498897009104
1076	 0.320730645616842
1077	 0.320974387093462
1078	 0.321115339094133
1079	 0.321330123523256
1080	 0.321594417713508
1081	 0.321764575653809
1082	 0.32203597169844
1083	 0.322271989228523
1084	 0.322431988551322
1085	 0.322625204779656
1086	 0.322877092380536
1087	 0.323082939172498
1088	 0.323271474720784
1089	 0.323453260276159
1090	 0.323619295714972
1091	 0.323782026188175
1092	 0.323926634170397
1093	 0.32408728542433
1094	 0.324220702089531
1095	 0.324359233241784
1096	 0.324540047881043
1097	 0.324687804661301
1098	 0.324894686112707
1099	 0.325215349246555
1100	 0.325411273939519
1101	 0.325560381618191
1102	 0.325728867250315
1103	 0.325877291382828
1104	 0.325959764504827
1105	 0.326067685431187
1106	 0.326246970850711
1107	 0.326426317123868
1108	 0.326564598123539
1109	 0.326735255494858
1110	 0.326866208475396
1111	 0.326933369646316
1112	 0.32701650150745
1113	 0.327128717319257
1114	 0.327253334087674
1115	 0.327404997850298
1116	 0.327599902693626
1117	 0.327754155986767
1118	 0.327887616308976
1119	 0.328040524264256
1120	 0.328185291952633
1121	 0.328343627956078
1122	 0.328545541004505
1123	 0.328786224947084
1124	 0.328964252340062
1125	 0.329126388866085
1126	 0.32925979485765
1127	 0.329379356787288
1128	 0.329496745563461
1129	 0.329618973428928
1130	 0.329751239682655
1131	 0.329896760349461
1132	 0.330006786227598
1133	 0.330088092164819
1134	 0.330209848547754
1135	 0.330339508972588
1136	 0.330463004534934
1137	 0.330621900205163
1138	 0.330766429322728
1139	 0.330921659193189
1140	 0.330997776781012
1141	 0.331060527025451
1142	 0.331159798810725
1143	 0.331291367488826
1144	 0.331410152227797
1145	 0.331531867002188
1146	 0.331729222609623
1147	 0.331825576865766
1148	 0.331849121556381
1149	 0.331893016935772
1150	 0.33187546517103
1151	 0.331941641492262
1152	 0.332049370327875
1153	 0.332148543035785
1154	 0.332300368888274
1155	 0.332413469176666
1156	 0.332478826022235
1157	 0.332580166816725
1158	 0.332715110177657
1159	 0.332885033220146
1160	 0.333066373086834
1161	 0.333294355914379
1162	 0.333467962123725
1163	 0.33362259430031
1164	 0.333766885188096
1165	 0.333868951063289
1166	 0.334010912182782
1167	 0.334169016397935
1168	 0.334328363627044
1169	 0.334517149979443
1170	 0.334676359952194
1171	 0.334805587271276
1172	 0.334958130188286
1173	 0.33510200739842
1174	 0.335278575839415
1175	 0.335514133294364
1176	 0.33569471476756
1177	 0.335868321759884
1178	 0.33597320942562
1179	 0.336074090284627
1180	 0.336241140441054
1181	 0.336400031376268
1182	 0.336613793935601
1183	 0.336772429871813
1184	 0.336911397561163
1185	 0.337043799674409
1186	 0.337144027509165
1187	 0.337277580337383
1188	 0.337410641096186
1189	 0.337552311929679
1190	 0.337771493177346
1191	 0.337893592406881
1192	 0.337938848596281
1193	 0.338028120547986
1194	 0.338088824704968
1195	 0.33812423849232
1196	 0.338273648102258
1197	 0.338414090427178
1198	 0.338544648737806
1199	 0.338690793824838
1200	 0.338804595671001
1201	 0.338879887979762
1202	 0.339007929314574
1203	 0.339140330663143
1204	 0.339285621307997
1205	 0.33949652050151
1206	 0.339633998126867
1207	 0.339722836018677
1208	 0.339838379574146
1209	 0.33993358385105
1210	 0.340041071788771
1211	 0.340185325250669
1212	 0.340298730720172
1213	 0.340403093513872
1214	 0.340477116901284
1215	 0.340556892754776
1216	 0.340632743468624
1217	 0.340720171368963
1218	 0.340812192780222
1219	 0.340906523554601
1220	 0.341017804169538
1221	 0.341098966539371
1222	 0.341155336534754
1223	 0.341240800523088
1224	 0.341296556067553
1225	 0.341414780201145
1226	 0.341615562271965
1227	 0.341750805643627
1228	 0.3419000515815
1229	 0.342014515227487
1230	 0.342047599892616
1231	 0.342136068355161
1232	 0.342249757981718
1233	 0.342356256805896
1234	 0.342511289763518
1235	 0.342604740820346
1236	 0.342716172852567
1237	 0.342807866291497
1238	 0.342923509872447
1239	 0.343046831224815
1240	 0.343171713718911
1241	 0.343314488314238
1242	 0.343431577744556
1243	 0.343542162272662
1244	 0.343645586475182
1245	 0.343743277642793
1246	 0.343822224718866
1247	 0.343872741655838
1248	 0.343949369208427
1249	 0.344026290794243
1250	 0.34409742089168
1251	 0.344183785057053
1252	 0.344265259402089
1253	 0.344327837324179
1254	 0.3443996528081
1255	 0.344476704296387
1256	 0.344554213154042
1257	 0.344669119281385
1258	 0.344806726219429
1259	 0.344923231917246
1260	 0.345068210324994
1261	 0.34518277489741
1262	 0.345280346255886
1263	 0.345354101697188
1264	 0.345419731668721
1265	 0.345470448229078
1266	 0.34546307915977
1267	 0.345506862203754
1268	 0.345566714180734
1269	 0.345635471889978
1270	 0.345740189721753
1271	 0.345817920708881
1272	 0.345894128243884
1273	 0.345961554812693
1274	 0.346007986998615
1275	 0.346062918114884
1276	 0.346115205003334
1277	 0.346171370191491
1278	 0.34623018252763
1279	 0.346301778456473
1280	 0.34634247531335
1281	 0.346369716307197
1282	 0.34640701735362
1283	 0.346425492932502
1284	 0.346459863730559
1285	 0.346521653033417
1286	 0.346554290510975
1287	 0.346570294975353
1288	 0.346591370735756
1289	 0.346586948706915
1290	 0.34661823602004
1291	 0.346681109738112
1292	 0.346719685992043
1293	 0.346789884213608
1294	 0.346813563655499
1295	 0.346776023615095
1296	 0.346772803452501
1297	 0.346766682348878
1298	 0.346758813720094
1299	 0.346749437728673
1300	 0.346767695628511
1301	 0.346788727484767
1302	 0.346804628758514
1303	 0.346833033878056
1304	 0.346898375792708
1305	 0.346918713717667
1306	 0.34691889928276
1307	 0.346922445807399
1308	 0.346915135519991
1309	 0.346900429598778
1310	 0.34687936423146
1311	 0.346860429234764
1312	 0.346846703078526
1313	 0.346801891157846
1314	 0.346733610094307
1315	 0.346683691243144
1316	 0.346619113532868
1317	 0.34655827433605
1318	 0.34652382508754
1319	 0.346468528197105
1320	 0.346364215636278
1321	 0.346305131673365
1322	 0.346300853190575
1323	 0.346252301215553
1324	 0.346195458655229
1325	 0.346159486606693
1326	 0.346062814736149
1327	 0.34589336695143
1328	 0.345795181308153
1329	 0.345718673892648
1330	 0.345605170760004
1331	 0.345496339135309
1332	 0.345391090716187
1333	 0.345244714501364
1334	 0.345145888573009
1335	 0.345123059026691
1336	 0.345010796598813
1337	 0.344836891303703
1338	 0.34471684387035
1339	 0.344593556696365
1340	 0.344457042906584
1341	 0.344373911007257
1342	 0.344241192877704
1343	 0.344045024963094
1344	 0.343866554590282
1345	 0.343678539902185
1346	 0.343499691783829
1347	 0.343329964643738
1348	 0.34315227544827
1349	 0.342984697339095
1350	 0.342792331689153
1351	 0.342626045558631
1352	 0.342435034171785
1353	 0.342242154794792
1354	 0.342057732783468
1355	 0.341859307411584
1356	 0.341629514185356
1357	 0.341440274755856
1358	 0.34126800651899
1359	 0.341092046386618
1360	 0.340947108111623
1361	 0.340755094420552
1362	 0.340546893779131
1363	 0.340332114137403
1364	 0.340088592015961
1365	 0.339856925231232
1366	 0.339625037405045
1367	 0.33939681204933
1368	 0.339214237504432
1369	 0.338934400346613
1370	 0.338617687752655
1371	 0.338286052242634
1372	 0.337930675606416
1373	 0.33750179842245
1374	 0.337085347139915
1375	 0.336546219524134
1376	 0.335890463193556
1377	 0.335181977375253
1378	 0.334398354383282
1379	 0.333566341675504
1380	 0.332683534508124
1381	 0.331695159310282
1382	 0.330651268847526
1383	 0.329551521712994
1384	 0.328416330586464
1385	 0.327194627049217
1386	 0.326046767437261
1387	 0.324852110803414
1388	 0.323784937276814
1389	 0.322758561668701
1390	 0.321822883053595
1391	 0.320982414942525
1392	 0.320153117511763
1393	 0.319412549215863
1394	 0.318620601665252
1395	 0.31787426864791
1396	 0.3170312652455
1397	 0.316165668020575
1398	 0.31522727732365
1399	 0.314214462429966
1400	 0.313168548342554
1401	 0.312067453476062
1402	 0.310930527855544
1403	 0.309703431370946
1404	 0.30852122584243
1405	 0.307309078836887
1406	 0.306134129714971
1407	 0.304963673873032
1408	 0.303847774737685
1409	 0.302745433015842
1410	 0.301721882820587
1411	 0.300843382908374
1412	 0.30008993108619
1413	 0.299506856236697
1414	 0.299047090583482
1415	 0.298740277644541
1416	 0.298577326428749
1417	 0.298513469172712
1418	 0.298608477488336
1419	 0.298733077569331
1420	 0.298990412277817
1421	 0.299191927610227
1422	 0.299436385954051
1423	 0.299680291933454
1424	 0.299922721216388
1425	 0.300164945016568
1426	 0.300426627607382
1427	 0.300693604054519
1428	 0.300935023273461
1429	 0.301222759581761
1430	 0.301548587427495
1431	 0.301880777970303
1432	 0.302243263059533
1433	 0.302592459186403
1434	 0.302969666457539
1435	 0.303303641096529
1436	 0.303592545287194
1437	 0.303920480706362
1438	 0.304257723050014
1439	 0.304581509557032
1440	 0.304935295704373
1441	 0.305249073774495
1442	 0.305505041464453
1443	 0.305791458884556
1444	 0.306078297655805
1445	 0.306386331557522
1446	 0.306673136084308
1447	 0.306944431873799
1448	 0.307160255354277
1449	 0.307350890320529
1450	 0.307551115015278
1451	 0.307726692008634
1452	 0.307911269328553
1453	 0.308058700684702
1454	 0.308196096945761
1455	 0.308348506714415
1456	 0.308488317313535
1457	 0.308633160977356
1458	 0.308760448282304
1459	 0.308870309832956
1460	 0.308985036243411
1461	 0.309086552736803
1462	 0.309205065614397
1463	 0.309312292342895
1464	 0.309468758582756
1465	 0.309653408698155
1466	 0.309840383636363
1467	 0.310053273022565
1468	 0.310279005233668
1469	 0.310500803652551
1470	 0.31075733408044
1471	 0.31105746609857
1472	 0.311355078719668
1473	 0.311658375149781
1474	 0.311983074951006
1475	 0.312323758611628
1476	 0.312675185439877
1477	 0.313061050894858
1478	 0.313426522587983
1479	 0.313795273951491
1480	 0.31415095627893
1481	 0.31448394934157
1482	 0.314835707269001
1483	 0.315201596594419
1484	 0.315557843181872
1485	 0.315931723747783
1486	 0.316273792672029
1487	 0.316569148238318
1488	 0.316892283739458
1489	 0.317227791677538
1490	 0.317543138155984
1491	 0.317866447643583
1492	 0.318187836611163
1493	 0.318455093675819
1494	 0.318715813173255
1495	 0.318988111002378
1496	 0.319267967225533
1497	 0.319581226036911
1498	 0.319874128654505
1499	 0.320135250390629
1500	 0.320412769957916
1501	 0.320664652561875
1502	 0.320914748992059
1503	 0.321169332463161
1504	 0.321400242158387
1505	 0.321657871847585
1506	 0.321906482827249
1507	 0.32213564031554
1508	 0.322364654859053
1509	 0.322592153623232
1510	 0.322791300607166
1511	 0.323008002321721
1512	 0.323240301004311
1513	 0.32348067546462
1514	 0.323736631660853
1515	 0.323942628214002
1516	 0.3241377117898
1517	 0.324338915966227
1518	 0.324486845618693
1519	 0.324690241530192
1520	 0.324959141488603
1521	 0.325156780041281
1522	 0.325329248940716
1523	 0.325507276847692
1524	 0.32565894759624
1525	 0.325821364568204
1526	 0.325995467199037
1527	 0.326154028174534
1528	 0.326295293005561
1529	 0.326446244067409
1530	 0.326605865165468
1531	 0.326751740854358
1532	 0.326903013872741
1533	 0.327026465251207
1534	 0.327112609573568
1535	 0.327226534816768
1536	 0.32731671644129
1537	 0.327452927277371
1538	 0.327655020878418
1539	 0.327802522941306
1540	 0.327957960354031
1541	 0.328083554728445
1542	 0.328142109944635
1543	 0.32824808118209
1544	 0.328384684171132
1545	 0.328488796191419
1546	 0.328573102905803
1547	 0.328686224721324
1548	 0.32878889405734
1549	 0.328908486251694
1550	 0.329108041514887
1551	 0.329229926148496
1552	 0.329279566874293
1553	 0.329373370288895
1554	 0.329436865852386
1555	 0.329529404349384
1556	 0.329692941480944
1557	 0.329810594290642
1558	 0.329892262258797
1559	 0.330002077084251
1560	 0.330117619443929
1561	 0.330216997431031
1562	 0.330341541607313
1563	 0.330435514853319
1564	 0.330484468099503
1565	 0.330552979895576
1566	 0.330617596495288
1567	 0.330686496399143
1568	 0.330770397654792
1569	 0.330842697609553
1570	 0.330880488895656
1571	 0.330959306483723
1572	 0.331080083577252
1573	 0.331170367153348
1574	 0.331272088020746
1575	 0.331375101766396
1576	 0.331425859568203
1577	 0.331453917358026
1578	 0.331521091934488
1579	 0.331626388839175
1580	 0.331712171073072
1581	 0.331790938381828
1582	 0.331883999280145
1583	 0.331950441517198
1584	 0.332022909655691
1585	 0.332120881811566
1586	 0.332183471445077
1587	 0.33222821525162
1588	 0.332298420474313
1589	 0.332360889738631
1590	 0.332399896661165
1591	 0.33246484756818
1592	 0.332548899758458
1593	 0.332624416201319
1594	 0.332717435069127
1595	 0.332780619752087
1596	 0.332790909922562
1597	 0.332809980787571
1598	 0.332846402702115
1599	 0.332911711918027
1600	 0.33300313945439
1601	 0.333093827156357
1602	 0.333187812193318
1603	 0.333276482328151
1604	 0.333350427035983
1605	 0.333403707983666
1606	 0.333454520340078
1607	 0.333508323260154
1608	 0.333566639312841
1609	 0.333644922946361
1610	 0.333685751080022
1611	 0.333701893357602
1612	 0.333750141363911
1613	 0.333772671839234
1614	 0.333794710266636
1615	 0.33385792089308
1616	 0.33391408013872
1617	 0.334002046134171
1618	 0.334079481943468
1619	 0.3341937898729
1620	 0.334244956493744
1621	 0.334267883143129
1622	 0.334283678212268
1623	 0.334261064122913
1624	 0.334295078944209
1625	 0.334342989595364
1626	 0.334382006830942
1627	 0.334450670906432
1628	 0.334478407558242
1629	 0.3344769903689
1630	 0.334544651292436
1631	 0.334605093820473
1632	 0.334660082195164
1633	 0.33471421758097
1634	 0.33471397099079
1635	 0.334715102299129
1636	 0.334751012527861
1637	 0.334804136843647
1638	 0.3348513179788
1639	 0.334908115269578
1640	 0.334930976407061
1641	 0.334946248365929
1642	 0.33491805262146
1643	 0.334939853662935
1644	 0.335007886403174
1645	 0.335043057198843
1646	 0.335094632179479
1647	 0.335142607719864
1648	 0.335146600073164
1649	 0.335170051931977
1650	 0.335243351405228
1651	 0.335274720922583
1652	 0.33525308507694
1653	 0.335273240846352
1654	 0.335302506096946
1655	 0.33532505202966
1656	 0.335382460080474
1657	 0.33542375785274
1658	 0.335437789316128
1659	 0.335457386672961
1660	 0.335479222073757
1661	 0.335505942279386
1662	 0.335533107187599
1663	 0.335556558388721
1664	 0.335582848540976
1665	 0.335609306684525
1666	 0.335622721312757
1667	 0.335653617294788
1668	 0.335704685552303
1669	 0.335744762680698
1670	 0.335813318912622
1671	 0.335833472097341
1672	 0.335811683544331
1673	 0.335798852974902
1674	 0.335747277142198
1675	 0.335723230588698
1676	 0.335728574541437
1677	 0.335715535525484
1678	 0.335679886043292
1679	 0.335686185098367
1680	 0.335726537555527
1681	 0.335732835136945
1682	 0.335771058446895
1683	 0.335758491499103
1684	 0.335657764381653
1685	 0.335626009960454
1686	 0.335617772563916
1687	 0.335606066026894
1688	 0.335622737621258
1689	 0.335633335024588
1690	 0.335635508553589
1691	 0.335637938590784
1692	 0.335664998806003
1693	 0.335661936103834
1694	 0.335637407781287
1695	 0.335605490706625
1696	 0.33554245500592
1697	 0.335505943041085
1698	 0.335480776116705
1699	 0.33545089633957
1700	 0.335452327612006
1701	 0.335405346629599
1702	 0.335297682968931
1703	 0.335256481854801
1704	 0.335234076621162
1705	 0.335187478565391
1706	 0.335183169835143
1707	 0.335133211996942
1708	 0.335010782039559
1709	 0.334965417249522
1710	 0.334969680810468
1711	 0.334908595477156
1712	 0.33485607985703
1713	 0.334773277929749
1714	 0.334637518917044
1715	 0.334522262597602
1716	 0.334401099212007
1717	 0.334293030588276
1718	 0.334169176981164
1719	 0.33408917566042
1720	 0.33404473214156
1721	 0.334044236618674
1722	 0.334031125342097
1723	 0.333984122859784
1724	 0.333899147675106
1725	 0.333716750152258
1726	 0.333546318449033
1727	 0.333397822771278
1728	 0.333258372928912
1729	 0.333161649917028
1730	 0.333030947925505
1731	 0.33290203297271
1732	 0.332794666549785
1733	 0.332617115365798
1734	 0.332449368082092
1735	 0.332313736206415
1736	 0.332162039996237
1737	 0.332069459794745
1738	 0.331929457799706
1739	 0.331687614607779
1740	 0.331535626122314
1741	 0.331442161173191
1742	 0.331322184388422
1743	 0.331239070168196
1744	 0.331134092844041
1745	 0.330988045095379
1746	 0.330866456498133
1747	 0.330787076426523
1748	 0.330664540558647
1749	 0.330498682710029
1750	 0.330377562474893
1751	 0.330260791708119
1752	 0.330129708832162
1753	 0.330052550860827
1754	 0.329896702531123
1755	 0.329655800358174
1756	 0.329487858735716
1757	 0.329315993483073
1758	 0.329164184362938
1759	 0.329065238910566
1760	 0.328926710988154
1761	 0.328747079232326
1762	 0.328569111029893
1763	 0.328419230851774
1764	 0.328273996846427
1765	 0.328171506229719
1766	 0.328084488796561
1767	 0.327942654279095
1768	 0.327803438730976
1769	 0.327687669438285
1770	 0.327524808468253
1771	 0.327409722260886
1772	 0.327294107643319
1773	 0.327116908031816
1774	 0.326965372561789
1775	 0.326835459737578
1776	 0.326756259109099
1777	 0.326701015130515
1778	 0.326649237580208
1779	 0.326608343260676
1780	 0.326547089336927
1781	 0.326472797687924
1782	 0.326398358825303
1783	 0.326303028117793
1784	 0.326144569722084
1785	 0.326071882693364
1786	 0.326049997031106
1787	 0.326015388421421
1788	 0.326020408936994
1789	 0.326006691364984
1790	 0.325990297740065
1791	 0.325945734802644
1792	 0.325888597519122
1793	 0.325788972228389
1794	 0.325685915769248
1795	 0.325671859806646
1796	 0.325740077084075
1797	 0.325729485150638
1798	 0.325715672832407
1799	 0.325737539403697
1800	 0.325698989872953
1801	 0.3256615382895
1802	 0.325701209073718
1803	 0.325739984016856
1804	 0.325714379001215
1805	 0.32569259663221
1806	 0.325699033009346
1807	 0.325613729108378
1808	 0.3255740429557
1809	 0.325677770566586
1810	 0.325700337717697
1811	 0.325726015898523
1812	 0.325770324193559
1813	 0.325734154171868
1814	 0.325749991189793
1815	 0.325755087717022
1816	 0.325739675790066
1817	 0.32575652380844
1818	 0.325664173545297
1819	 0.325618460910902
1820	 0.325557584543597
1821	 0.325476863124134
1822	 0.325376169212932
1823	 0.325353356182591
1824	 0.325354642601982
1825	 0.32532668815025
1826	 0.325391924464983
1827	 0.325342728107992
1828	 0.325321462301621
1829	 0.325410086987834
1830	 0.32540665194475
1831	 0.32444240874951
1832	 0.324431702280567
1833	 0.324456996216003
1834	 0.324388547744455
1835	 0.324202232705432
1836	 0.32412820969886
1837	 0.324022907856872
1838	 0.323970751073537
1839	 0.32402121852898
1840	 0.324073922155552
1841	 0.324032728247431
1842	 0.323918363031828
1843	 0.323847040207098
1844	 0.323807947023207
1845	 0.323667982304223
1846	 0.323503093484935
1847	 0.323323488883799
1848	 0.323095370241995
1849	 0.32271978609035
1850	 0.32250843546276
1851	 0.322424576505165
1852	 0.322248683235008
1853	 0.32194659108076
1854	 0.321610737346582
1855	 0.321151435647231
1856	 0.32073658114943
1857	 0.320319006244523
1858	 0.319889152686122
1859	 0.319489077624583
1860	 0.319010873112375
1861	 0.318417351003939
1862	 0.317798138079026
1863	 0.317063573331168
1864	 0.316238402252996
1865	 0.315409065137811
1866	 0.314540020025535
1867	 0.313583219075028
1868	 0.312596586107032
1869	 0.311517479056606
1870	 0.310320393301829
1871	 0.308993743157217
1872	 0.307571743217417
1873	 0.30609902254541
1874	 0.304483742681462
1875	 0.302872400858157
1876	 0.301268103216882
1877	 0.299500990796179
1878	 0.297651595897667
1879	 0.295741542976931
1880	 0.293739062461035
1881	 0.29152577064611
1882	 0.289291274227404
1883	 0.286861903729347
1884	 0.284254712678608
1885	 0.281662298007403
1886	 0.278830820227902
1887	 0.275925802196016
1888	 0.273005538460154
1889	 0.269925544764717
1890	 0.266639545648305
1891	 0.263393628149641
1892	 0.260140771500985
1893	 0.25680949609585
1894	 0.2535373445016
1895	 0.250215209422349
1896	 0.246879027466603
1897	 0.243651826611443
1898	 0.240494467429976
1899	 0.237449125623302
1900	 0.234586917516184
1901	 0.231884334243758
1902	 0.229259384637245
1903	 0.226879079192822
1904	 0.224745735642286
1905	 0.222806758450008
1906	 0.221134644886471
1907	 0.219632191273189
1908	 0.218380982598777
1909	 0.217305145762782
1910	 0.216314883090348
1911	 0.215560226843687
1912	 0.215016241744346
1913	 0.214648357310236
1914	 0.214407860661714
1915	 0.214359614302488
1916	 0.214425341315164
1917	 0.214494843454251
1918	 0.214678082647602
1919	 0.214954356306064
1920	 0.215206766424624
1921	 0.215529483979527
1922	 0.21595306855965
1923	 0.21637651020262
1924	 0.216843805790109
1925	 0.217342727373605
1926	 0.217832469616651
1927	 0.218249574930409
1928	 0.218653444957403
1929	 0.219116152803197
1930	 0.219567314226008
1931	 0.220019576876951
1932	 0.220552003987106
1933	 0.221056444946894
1934	 0.221571013588961
1935	 0.22211180239393
1936	 0.222685827908266
1937	 0.223168469695488
1938	 0.223695440296018
1939	 0.224218830214632
1940	 0.224652824324124
1941	 0.225122445585981
1942	 0.225602000889733
1943	 0.226132705789167
1944	 0.226655096397917
1945	 0.22713577148433
1946	 0.227591190437487
1947	 0.228073951342917
1948	 0.228505754237489
1949	 0.229012617932325
1950	 0.229563102364503
1951	 0.230107653082109
1952	 0.230675147913188
1953	 0.231239785634925
1954	 0.231888467427785
1955	 0.232472464604177
1956	 0.232946715179414
1957	 0.233439172137996
1958	 0.23392867782545
1959	 0.234345935252888
1960	 0.234849745287882
1961	 0.23544442994309
1962	 0.235911801566446
1963	 0.236458028156956
1964	 0.237018922192506
1965	 0.237549878818361
1966	 0.23821673252349
1967	 0.238851359471956
1968	 0.239397928168553
1969	 0.239997226765547
1970	 0.240617363114696
1971	 0.241224019542855
1972	 0.241820781106602
1973	 0.242464385068144
1974	 0.243140751392575
1975	 0.243778089021587
1976	 0.244408563864499
1977	 0.24504460304381
1978	 0.245655059801693
1979	 0.246294317544147
1980	 0.246991159885852
1981	 0.247598076051569
1982	 0.24819450905834
1983	 0.248704789175105
1984	 0.249325050904004
1985	 0.249954288412469
1986	 0.250665092721437
1987	 0.251518315523971
1988	 0.252259288770378
1989	 0.252975080728496
1990	 0.253611371410108
1991	 0.254151963208601
1992	 0.254792913333194
1993	 0.255443038843782
1994	 0.2560737773965
1995	 0.256779796603275
1996	 0.257547299168567
1997	 0.258282163340923
1998	 0.259098166890322
1999	 0.259842708247952
2000	 0.260563247852408
2001	 0.261247220114237
2002	 0.261842588657508
2003	 0.262495107240325
2004	 0.263178601372882
2005	 0.263735185482001
2006	 0.264355133439898
2007	 0.264973851530836
2008	 0.265597507101566
2009	 0.266216351920859
2010	 0.266862593897977
2011	 0.267566080983669
2012	 0.268171039208518
2013	 0.268701930836614
2014	 0.269282049376275
2015	 0.269812330289509
2016	 0.270422294851467
2017	 0.271068249674973
2018	 0.271681732136578
2019	 0.272323558931247
2020	 0.272845919977808
2021	 0.273393218601256
2022	 0.273917916778863
2023	 0.274483760405307
2024	 0.275080981073311
2025	 0.27563624763334
2026	 0.276216132005848
2027	 0.276723957044106
2028	 0.277201247481891
2029	 0.277555516191561
2030	 0.277966350194935
2031	 0.278416841020601
2032	 0.278817967391103
2033	 0.27930821308258
2034	 0.279791730651922
2035	 0.28018484721701
2036	 0.28064909173292
2037	 0.281179234955033
2038	 0.281642928317492
2039	 0.282097521928157
2040	 0.282535456443883
2041	 0.282918902406262
2042	 0.283302983520836
2043	 0.28364903370639
2044	 0.284090943371469
2045	 0.284514268252971
2046	 0.284897975546799
2047	 0.28523440918259
2048	 0.285594031841792
2049	 0.285889670646264
2050	 0.286129859870719
2051	 0.286427318932472
2052	 0.286727430912789
2053	 0.287054132249005
2054	 0.287434872993473
2055	 0.287793784355063
2056	 0.288159462954979
2057	 0.288514624300265
2058	 0.288892212733696
2059	 0.289190268823089
2060	 0.28944866905139
2061	 0.289851970941667
2062	 0.290226497724362
2063	 0.290509105639144
2064	 0.290807904855365
2065	 0.29114210874184
2066	 0.29149305274211
2067	 0.291883392216204
2068	 0.292204093699826
2069	 0.2925176031413
2070	 0.292822607312244
2071	 0.293007064053533
2072	 0.293315692043739
2073	 0.29374343255488
2074	 0.294115730505212
2075	 0.294496788139891
2076	 0.294907734792582
2077	 0.29525575939365
2078	 0.295537953061967
2079	 0.295800513114977
2080	 0.29601110367324
2081	 0.296255206749078
2082	 0.296503096237725
2083	 0.296735048894118
2084	 0.296966282673429
2085	 0.297176584908342
2086	 0.297338194890017
2087	 0.29753955993019
2088	 0.297727228033589
2089	 0.297988786400479
2090	 0.298296546883893
2091	 0.298614867998031
2092	 0.299013148039307
2093	 0.299395687414536
2094	 0.29966534285365
2095	 0.299855882540915
2096	 0.299945510380718
2097	 0.300031596321695
2098	 0.300215749027429
2099	 0.300451119456013
2100	 0.300720643224201
2101	 0.301107419297201
2102	 0.301376658006093
2103	 0.301586454385684
2104	 0.30184628820182
2105	 0.302135644428334
2106	 0.302357126403521
2107	 0.302545689958137
2108	 0.302767225001693
2109	 0.302927935498852
2110	 0.303101913879694
2111	 0.303368480539404
2112	 0.303767290192588
2113	 0.304121683241828
2114	 0.304397232221474
2115	 0.304667213326825
2116	 0.304891163079893
2117	 0.305129309268807
2118	 0.30536998006101
2119	 0.305572701011265
2120	 0.305728210371117
2121	 0.30593898010762
2122	 0.306183469038683
2123	 0.306372373004398
2124	 0.306562717555029
2125	 0.306731986080739
2126	 0.30686466885812
2127	 0.306933889930124
2128	 0.307078465185524
2129	 0.307339466811564
2130	 0.307507542166005
2131	 0.307604815953025
2132	 0.307711024036079
2133	 0.307757834362982
2134	 0.307820137697393
2135	 0.307903976066934
2136	 0.307959623681791
2137	 0.307997979250763
2138	 0.307993724594642
2139	 0.307996240252976
2140	 0.307909631345075
2141	 0.307757117821594
2142	 0.30758357028
2143	 0.307307547451007
2144	 0.307098842153328
2145	 0.306939433844619
2146	 0.306682004611534
2147	 0.306416619658984
2148	 0.306101297258513
2149	 0.305661607195705
2150	 0.305263633253111
2151	 0.305011176670882
2152	 0.304761290388435
2153	 0.30448929175576
2154	 0.304328208005036
2155	 0.304002447385602
2156	 0.303574362456876
2157	 0.303144807463633
2158	 0.302603372145848
2159	 0.302162985591728
2160	 0.301663364707731
2161	 0.301320110787432
2162	 0.301149420020157
2163	 0.300892144369424
2164	 0.300767751768281
2165	 0.300494292428288
2166	 0.30005092970238
2167	 0.299676641512455
2168	 0.299250148850015
2169	 0.298868866893577
2170	 0.29856568613946
2171	 0.298256911840737
2172	 0.297917462383116
2173	 0.297606458241389
2174	 0.297267578406551
2175	 0.29690817202229
2176	 0.296569439985473
2177	 0.296204596558596
2178	 0.295883409278501
2179	 0.295609697351983
2180	 0.29525906810279
2181	 0.294948509459132
2182	 0.294550898090517
2183	 0.294031960353976
2184	 0.293567102817051
2185	 0.293097812030675
2186	 0.292621469568891
2187	 0.292172917702293
2188	 0.291661100609672
2189	 0.291095089038396
2190	 0.29051875947295
2191	 0.290036105374836
2192	 0.28953960857878
2193	 0.289016948423868
2194	 0.288545301889061
2195	 0.287813132224945
2196	 0.287054433707605
2197	 0.286373741078267
2198	 0.285659169170423
2199	 0.284989834189838
2200	 0.284419014889893
2201	 0.283750254112306
2202	 0.28299575714194
2203	 0.282362051011248
2204	 0.281659161893088
2205	 0.281197538947333
2206	 0.280928007624652
2207	 0.280673777191319
2208	 0.280463247067544
2209	 0.280439413017808
2210	 0.280515303663904
2211	 0.280706690114198
2212	 0.281158805219907
2213	 0.281592417667207
2214	 0.28211894149907
2215	 0.282593273308745
2216	 0.283110034514148
2217	 0.283600811725172
2218	 0.284052307358382
2219	 0.284505637399376
2220	 0.284767238438726
2221	 0.285017279614122
2222	 0.285218267945845
2223	 0.285303658567419
2224	 0.285422559567794
2225	 0.285582256936382
2226	 0.285629455927909
2227	 0.285588686246791
2228	 0.285547908157803
2229	 0.285488725892174
2230	 0.285375982138997
2231	 0.285157829984215
2232	 0.285084608038646
2233	 0.284987249609319
2234	 0.284986129043387
2235	 0.285184703719093
2236	 0.285201589857235
2237	 0.285214159431956
2238	 0.285151963568196
2239	 0.284973441326573
2240	 0.284820570689713
2241	 0.284534711816162
2242	 0.284407927851307
2243	 0.284377864565963
2244	 0.284312479150817
2245	 0.284348597449417
2246	 0.284359568591566
2247	 0.284246510918935
2248	 0.28415356620993
2249	 0.284035217818393
2250	 0.284119080673674
2251	 0.284287302124697
2252	 0.284306967932072
2253	 0.284442691541772
2254	 0.284461985907908
2255	 0.284207958525778
2256	 0.284087813844409
2257	 0.284094062838662
2258	 0.284096638283897
2259	 0.284193278871146
2260	 0.284587765436078
2261	 0.284702037719317
2262	 0.284724116165345
2263	 0.284709397654315
2264	 0.284542364508129
2265	 0.284443513722629
2266	 0.284328554262915
2267	 0.2842067683203
2268	 0.284144990334558
2269	 0.284033523974712
2270	 0.283862518315758
2271	 0.283730204883172
2272	 0.283619109604651
2273	 0.283413404287166
2274	 0.283219371152674
2275	 0.282911254088536
2276	 0.282403090299527
2277	 0.282053735293232
2278	 0.281792491176811
2279	 0.281420865521937
2280	 0.281050992813514
2281	 0.28069264974235
2282	 0.280269230212306
2283	 0.279775908936632
2284	 0.279492838667992
2285	 0.279001584392024
2286	 0.278501409551721
2287	 0.278035993089541
2288	 0.277435058376932
2289	 0.277021753365968
2290	 0.276620982584705
2291	 0.276261432409021
2292	 0.275963594325321
2293	 0.275616387084976
2294	 0.275453847878101
2295	 0.27530856743636
2296	 0.275034788274217
2297	 0.274880761467
2298	 0.274663435167871
2299	 0.274263771193765
2300	 0.273991718213668
2301	 0.273727226444584
2302	 0.273295564661759
2303	 0.272673974034673
2304	 0.27213408104769
2305	 0.27148749961542
2306	 0.270982281568062
2307	 0.2706030889768
2308	 0.270169320344459
2309	 0.269750578551165
2310	 0.269277180375825
2311	 0.268608082444823
2312	 0.268222851448063
2313	 0.268032955275092
2314	 0.267872495883051
2315	 0.267885520128188
2316	 0.267901181670535
2317	 0.267884960924256
2318	 0.267912742788106
2319	 0.268081042935591
2320	 0.268168947657302
2321	 0.268220845931707
2322	 0.268264439297385
2323	 0.268253957352707
2324	 0.268400180920366
2325	 0.268735109152485
2326	 0.268814150767304
2327	 0.268823741951617
2328	 0.268816694595517
2329	 0.268563535919291
2330	 0.268496558386835
2331	 0.26863757066638
2332	 0.268649331830588
2333	 0.268691254760262
2334	 0.268546028775106
2335	 0.268194905095175
2336	 0.268006366147634
2337	 0.267746994602887
2338	 0.267498522159687
2339	 0.267493035674089
2340	 0.267246310486055
2341	 0.266784968802715
2342	 0.266360490841572
2343	 0.266126638293745
2344	 0.265729643515556
2345	 0.265283161935486
2346	 0.26499131628114
2347	 0.264430581955267
2348	 0.263786735548401
2349	 0.263603082989116
2350	 0.263509525860185
2351	 0.263401527447206
2352	 0.263259540053986
2353	 0.262879686512378
2354	 0.262445530569658
2355	 0.261913562139662
2356	 0.261492023068181
2357	 0.261101858691408
2358	 0.260663455779024
2359	 0.260601614424485
2360	 0.260444502812292
2361	 0.260215376892365
2362	 0.259917164642792
2363	 0.259231634819725
2364	 0.258943068629994
2365	 0.258737957672505
2366	 0.258446642103599
2367	 0.258403691054075
2368	 0.257940209702987
2369	 0.257319219453843
2370	 0.257005389973012
2371	 0.256473332335905
2372	 0.255864184662023
2373	 0.255505490326322
2374	 0.254793815048188
2375	 0.25405718439431
2376	 0.253529609870844
2377	 0.252652089095481
2378	 0.251707445205051
2379	 0.250950175002424
2380	 0.250318295021083
2381	 0.249790416320511
2382	 0.249549735408543
2383	 0.249330052035104
2384	 0.248788383234047
2385	 0.248394137462684
2386	 0.248218911167624
2387	 0.247829659063898
2388	 0.247515275107995
2389	 0.247262931941389
2390	 0.246588224155803
2391	 0.246170877643564
2392	 0.245926248959826
2393	 0.245581747188039
2394	 0.245720239678748
2395	 0.245888694765551
2396	 0.245775105404481
2397	 0.245638021757395
2398	 0.245226904145154
2399	 0.2445896092315
2400	 0.24394099198126
2401	 0.243407180096472
2402	 0.243212230686536
2403	 0.242828237956221
2404	 0.242596932106888
2405	 0.242702897962563
2406	 0.242075950574044
2407	 0.241795921179195
2408	 0.242164425607775
2409	 0.241682850610948
2410	 0.241357059500946
2411	 0.240988252809373
2412	 0.23973004179261
2413	 0.239071372012308
2414	 0.23877024376091
2415	 0.238000751163412
2416	 0.237065491944868
2417	 0.236057422026609
2418	 0.235110799380891
2419	 0.234755974491606
2420	 0.234968628058253
2421	 0.235005846590196
2422	 0.234755456840341
2423	 0.23397504868209
2424	 0.233499471103372
2425	 0.233453057280968
2426	 0.233138794866803
2427	 0.232737698749943
2428	 0.232349060859701
2429	 0.231544494186392
2430	 0.23086955081592
2431	 0.230498173201567
2432	 0.229776337971062
2433	 0.228917437865147
2434	 0.228275935414595
2435	 0.227605498807658
2436	 0.226955580529775
2437	 0.226351088037872
2438	 0.225328470745595
2439	 0.22431684795389
2440	 0.223881202155682
2441	 0.224042477485813
2442	 0.224120349247894
2443	 0.22444885669018
2444	 0.224588486414027
2445	 0.224520461072016
2446	 0.224690009774787
2447	 0.223865752826767
2448	 0.222670118773645
2449	 0.221676060681992
2450	 0.220338143218603
2451	 0.219979706748096
2452	 0.219737640318125
2453	 0.218871593450937
2454	 0.218355313011787
2455	 0.217396914539469
2456	 0.216678868956674
2457	 0.216500797381812
2458	 0.215892482234951
2459	 0.215233622397162
2460	 0.214964347754318
2461	 0.214711541442312
2462	 0.213982185824363
2463	 0.213755827180314
2464	 0.213626936028451
2465	 0.212818797665549
2466	 0.212992964102188
2467	 0.212966999729017
2468	 0.211769836616421
2469	 0.211405328312005
2470	 0.210947446487543
2471	 0.210082181344535
2472	 0.2097768178306
2473	 0.208851431996881
2474	 0.207955284752411
2475	 0.207885636708876
2476	 0.207771063535686
2477	 0.208390488208886
2478	 0.208232344415344
2479	 0.207360736220303
2480	 0.205971415382386
2481	 0.204374080430171
2482	 0.203981870140779
2483	 0.204551423590938
2484	 0.204305264478748
2485	 0.203695178616829
2486	 0.203057372371977
2487	 0.202094404831396
2488	 0.202109229790124
2489	 0.202410149487345
2490	 0.202231885435039
2491	 0.201801002657801
2492	 0.201499031664475
2493	 0.20138662643652
2494	 0.200865958770131
2495	 0.20130398694264
2496	 0.202349756840736
2497	 0.201733986768231
2498	 0.201815789288388
2499	 0.201741313486843
2500	 0.199147097230146
