Wavelength	signature0013.asd
350	 0.106138813397426
351	 0.110426201601516
352	 0.103383272238728
353	 9.52339786425998E-02
354	 9.90462327179715E-02
355	 9.54133444008638E-02
356	 9.89984983829303E-02
357	 0.104638904134378
358	 9.53590550494968E-02
359	 0.10055005325808
360	 0.105419368142237
361	 0.102796356285861
362	 0.102183648841179
363	 0.10387778773786
364	 0.104598597309498
365	 0.102855213213478
366	 0.103713643328408
367	 0.10176662894774
368	 9.90904377466502E-02
369	 9.92634395456646E-02
370	 0.101374004551023
371	 0.100197414373693
372	 9.81516568072764E-02
373	 0.101214001108591
374	 0.10253377624547
375	 0.101152381670272
376	 9.91166583005696E-02
377	 0.10074178842671
378	 0.101173255329925
379	 0.10288085524575
380	 0.106256511476423
381	 0.104276758188435
382	 0.105372088438032
383	 0.106157902299667
384	 0.102858904829701
385	 0.105025658505389
386	 0.106311571418474
387	 0.105725790266877
388	 0.10561834458087
389	 0.106418527865332
390	 0.107329898045196
391	 0.107613144190565
392	 0.10680740807893
393	 0.104306972216633
394	 0.104539652707322
395	 0.108457017783439
396	 0.108112445407529
397	 0.107820726564455
398	 0.108411604715518
399	 0.109393208136253
400	 0.109254447912755
401	 0.110503618343773
402	 0.111684996712362
403	 0.109633889357136
404	 0.109307932691366
405	 0.109516856695779
406	 0.109636595901163
407	 0.110604002169916
408	 0.110983365928663
409	 0.110999100986179
410	 0.11099751258454
411	 0.110660347384374
412	 0.109979362493708
413	 0.109532530163807
414	 0.110008349667334
415	 0.111683650573435
416	 0.112139961841733
417	 0.111413103884838
418	 0.111542717363686
419	 0.111575994533625
420	 0.111486674170819
421	 0.111504346129584
422	 0.112134066135404
423	 0.112151668283495
424	 0.111913113134107
425	 0.112115542178374
426	 0.112959112013512
427	 0.11351804933357
428	 0.11348779908216
429	 0.113105065149494
430	 0.113401546448856
431	 0.113949775051836
432	 0.114185391295075
433	 0.113607029179586
434	 0.114137196205337
435	 0.114886332255389
436	 0.114934339865814
437	 0.115334132572982
438	 0.115205610084711
439	 0.115102516967632
440	 0.115922343417827
441	 0.116015172522599
442	 0.11650152324444
443	 0.117227935694234
444	 0.116558400811843
445	 0.116794119404834
446	 0.117474200244779
447	 0.117905558380553
448	 0.118251072085819
449	 0.118475824564464
450	 0.118596081436786
451	 0.118691981437203
452	 0.119060904640904
453	 0.119398041888712
454	 0.119587260373722
455	 0.119721761633627
456	 0.11971415401942
457	 0.119819738298706
458	 0.12021255003706
459	 0.120913880910523
460	 0.120251920145358
461	 0.119810497923809
462	 0.121319995624843
463	 0.121277965482903
464	 0.120942367707079
465	 0.12104917956198
466	 0.121629337629582
467	 0.121747852781926
468	 0.121807296106908
469	 0.122127544313585
470	 0.122458716873515
471	 0.12270820656129
472	 0.12276609872348
473	 0.122657890670248
474	 0.122966984325975
475	 0.122982920992414
476	 0.122828471721276
477	 0.123211115183173
478	 0.123281425609823
479	 0.12337092687363
480	 0.123656314436535
481	 0.123709868982546
482	 0.123986399871517
483	 0.124397865058911
484	 0.124694719341977
485	 0.124711385930312
486	 0.12482661703752
487	 0.125026714165667
488	 0.125038456181163
489	 0.125400364606996
490	 0.12587704400288
491	 0.126211688333838
492	 0.126303475627411
493	 0.126507733583475
494	 0.126756068435815
495	 0.126923126436986
496	 0.12732021213525
497	 0.127357866855665
498	 0.127243532833884
499	 0.127739506786416
500	 0.128274704850632
501	 0.128438708882979
502	 0.128274423625165
503	 0.128598712933401
504	 0.129025609372889
505	 0.129365781270735
506	 0.129537581141047
507	 0.129684847919859
508	 0.12988429246213
509	 0.130124661180635
510	 0.130331923230102
511	 0.130594844452153
512	 0.130874053300376
513	 0.131152461046438
514	 0.131503218988876
515	 0.131910863692982
516	 0.132106901906293
517	 0.131958273586061
518	 0.132472441508182
519	 0.132849354382607
520	 0.132950838918855
521	 0.133311042239055
522	 0.133522936072884
523	 0.133702112190413
524	 0.133938970831708
525	 0.134023727258628
526	 0.134305338880578
527	 0.134638730787968
528	 0.13477806998813
529	 0.135177503015288
530	 0.13556102824652
531	 0.135792250668961
532	 0.135946089627931
533	 0.136351880582705
534	 0.136765767889274
535	 0.136970860568107
536	 0.137148965470657
537	 0.137356402267024
538	 0.137623885203007
539	 0.13796325924222
540	 0.138426050105941
541	 0.138710775690284
542	 0.138867487528641
543	 0.139406859032396
544	 0.139801408115464
545	 0.140142649432924
546	 0.14058567383291
547	 0.140998869471918
548	 0.141376702679874
549	 0.141724677728508
550	 0.142078267596372
551	 0.142681138007029
552	 0.143196796510475
553	 0.143519065799096
554	 0.14400829656484
555	 0.144440066593265
556	 0.144896796792877
557	 0.14546823845028
558	 0.145906760781858
559	 0.146408377634765
560	 0.146965796972099
561	 0.147429139902517
562	 0.147992050314033
563	 0.148698060827027
564	 0.149467651597704
565	 0.150025881622756
566	 0.150576954277956
567	 0.151175128905629
568	 0.151825449673401
569	 0.152567921715433
570	 0.153194136825462
571	 0.153686745568127
572	 0.154226220129084
573	 0.154857354346383
574	 0.155514525930154
575	 0.156154899512661
576	 0.156856266639499
577	 0.157534337867646
578	 0.158228411001742
579	 0.159010651748233
580	 0.159803177509066
581	 0.1605323317893
582	 0.161248054373539
583	 0.162132435211277
584	 0.162937349853039
585	 0.163670353120044
586	 0.16435310586486
587	 0.16483404421981
588	 0.165472098915679
589	 0.166163474349048
590	 0.166592238776839
591	 0.167032963539333
592	 0.167541397220352
593	 0.168108576622985
594	 0.168661777743809
595	 0.169269304051777
596	 0.169911876328057
597	 0.170517286137068
598	 0.170926234062559
599	 0.171337285763206
600	 0.171806416621476
601	 0.172269564324057
602	 0.172651972928252
603	 0.173072356680675
604	 0.173555277146124
605	 0.173892652065105
606	 0.174217441202972
607	 0.174607771061861
608	 0.175062226200707
609	 0.175300665163485
610	 0.175500482269626
611	 0.175809918410811
612	 0.176302322327574
613	 0.17660076409959
614	 0.176834389941832
615	 0.177145041788736
616	 0.177477256450164
617	 0.177790023236817
618	 0.178052299560598
619	 0.17828051143824
620	 0.178712873623215
621	 0.179096473480319
622	 0.179342019782076
623	 0.17958425953342
624	 0.179965569630816
625	 0.180318469452568
626	 0.18053394103181
627	 0.180878274141525
628	 0.181214397443845
629	 0.181519839845562
630	 0.181824836062867
631	 0.182087855272759
632	 0.182410266468635
633	 0.182793858758709
634	 0.183092108899498
635	 0.183388477800183
636	 0.183733127009739
637	 0.184127927197029
638	 0.184431767955766
639	 0.18479414326653
640	 0.18523553290154
641	 0.185676756723392
642	 0.185959392135472
643	 0.186281246840995
644	 0.186720367998527
645	 0.187094890638846
646	 0.187428908857417
647	 0.187762774440866
648	 0.188120275190315
649	 0.188417854112649
650	 0.188717348683333
651	 0.189079391092819
652	 0.189538414955344
653	 0.189874974785018
654	 0.190179255574401
655	 0.190519906942475
656	 0.190826548582155
657	 0.191221826653877
658	 0.191636564589807
659	 0.191952799062429
660	 0.19214123751566
661	 0.192436064458514
662	 0.192867691867771
663	 0.193277788405028
664	 0.193575018329283
665	 0.19395533214686
666	 0.194472343501401
667	 0.194749240755507
668	 0.195177997290493
669	 0.195685871899493
670	 0.196069490880972
671	 0.196407704784294
672	 0.196768364325309
673	 0.19715660169173
674	 0.197518278133164
675	 0.197848142179059
676	 0.19821556690602
677	 0.198632586518284
678	 0.198937408210962
679	 0.199261634099195
680	 0.199647352108048
681	 0.200086668040562
682	 0.20051134354276
683	 0.200912873734438
684	 0.20131836613768
685	 0.201780347069501
686	 0.20219907594455
687	 0.202566357648277
688	 0.202916433975738
689	 0.20332717605495
690	 0.203854741349259
691	 0.204351591747167
692	 0.204667774384881
693	 0.205203776672782
694	 0.205736804144306
695	 0.206142227633788
696	 0.206456258425766
697	 0.206921108580288
698	 0.207427428868079
699	 0.207851227694395
700	 0.208229473958415
701	 0.208543803748279
702	 0.208858639915453
703	 0.209246882848209
704	 0.209601461247635
705	 0.210031611338435
706	 0.210493193713585
707	 0.210784002924719
708	 0.211104068748841
709	 0.211459728459389
710	 0.211829063633432
711	 0.212225559109624
712	 0.212577295989709
713	 0.212866560960483
714	 0.213118407803831
715	 0.213430685735966
716	 0.21381063457629
717	 0.214211408495791
718	 0.214545601808905
719	 0.214815643196062
720	 0.21511214610652
721	 0.215475032807625
722	 0.215798985859817
723	 0.216079174579615
724	 0.216328670397204
725	 0.216588194901686
726	 0.216988060100117
727	 0.217273546093765
728	 0.217449616642664
729	 0.217749898733959
730	 0.218049613001754
731	 0.218304758126952
732	 0.218511695314154
733	 0.218715728374438
734	 0.218977959835253
735	 0.219264316452966
736	 0.219512933142104
737	 0.219698410041984
738	 0.219920445710937
739	 0.220170558083354
740	 0.220367276616432
741	 0.220587179654195
742	 0.220866959448256
743	 0.221156163398953
744	 0.221278781751514
745	 0.221432454936715
746	 0.221642017110934
747	 0.221874605073647
748	 0.2220838155699
749	 0.222273990153073
750	 0.222463351575378
751	 0.222672379317044
752	 0.222872989595303
753	 0.223067590778023
754	 0.223261686415533
755	 0.223459999053162
756	 0.223630430406102
757	 0.22377373362058
758	 0.223912364351295
759	 0.224109945635848
760	 0.224254758160735
761	 0.224353464453334
762	 0.224464174420613
763	 0.22462084349316
764	 0.22479865822644
765	 0.224946749779524
766	 0.225010779807475
767	 0.225138068401773
768	 0.225244560194104
769	 0.225301050132445
770	 0.225439055086584
771	 0.225578445808823
772	 0.225700787684386
773	 0.225808222622745
774	 0.225911274960008
775	 0.226009423069669
776	 0.226106331417237
777	 0.22620718495408
778	 0.226310959604053
779	 0.226416522330828
780	 0.226521454333916
781	 0.226621605476645
782	 0.226698051180541
783	 0.226798904418412
784	 0.22693925750986
785	 0.227041845339532
786	 0.227021567507371
787	 0.226996490997959
788	 0.227104855480323
789	 0.2272329504598
790	 0.227325348153571
791	 0.227392224432062
792	 0.227481373397318
793	 0.227542079461592
794	 0.227594817778973
795	 0.227647661647094
796	 0.227684518320378
797	 0.2277621543303
798	 0.227808136852741
799	 0.227801021628484
800	 0.227917632968715
801	 0.227953609050018
802	 0.227973238081441
803	 0.228081633242928
804	 0.228117813108968
805	 0.228091554011146
806	 0.22810132139678
807	 0.22824961076736
808	 0.228188378041533
809	 0.228199909299119
810	 0.22835170072633
811	 0.228381121512702
812	 0.228427885443228
813	 0.22845386800216
814	 0.228444119412162
815	 0.228503637282428
816	 0.228553998941225
817	 0.228589965946461
818	 0.228620671380104
819	 0.228605695177628
820	 0.228691580059001
821	 0.228810860154894
822	 0.228809045369039
823	 0.228822042185725
824	 0.22886087765386
825	 0.228921345052194
826	 0.228986789346767
827	 0.228963897819114
828	 0.228943567945304
829	 0.228988634941595
830	 0.22906730876346
831	 0.229148527388183
832	 0.229161110244983
833	 0.22911689730474
834	 0.2292819098695
835	 0.229311642971743
836	 0.229282428406864
837	 0.22936555355633
838	 0.229390575234064
839	 0.229398104005061
840	 0.229394762613073
841	 0.229380273029856
842	 0.229486249585708
843	 0.229521299906078
844	 0.229485713484367
845	 0.229580225891415
846	 0.229654696390762
847	 0.229688421775042
848	 0.229729855576442
849	 0.229894581233496
850	 0.22993468157421
851	 0.229870638691275
852	 0.22982354114016
853	 0.229992920122016
854	 0.230061335327032
855	 0.230047519668653
856	 0.230058255710296
857	 0.230055233762449
858	 0.230124415538578
859	 0.230202263759631
860	 0.230198779402991
861	 0.230315011266737
862	 0.230460518118394
863	 0.230543575833485
864	 0.230512828928775
865	 0.230503850912243
866	 0.230539944263774
867	 0.2306256893265
868	 0.230749621741103
869	 0.230759180675584
870	 0.230891992027752
871	 0.231137199174958
872	 0.231037686152264
873	 0.231010704794418
874	 0.231118747824339
875	 0.231253625351736
876	 0.231122288546211
877	 0.231220848315882
878	 0.231414289130902
879	 0.231475110195488
880	 0.231501740240724
881	 0.231574168483385
882	 0.231701460443555
883	 0.231828549732994
884	 0.23178117846416
885	 0.231870689186306
886	 0.232075801713926
887	 0.232213317292309
888	 0.232310087391071
889	 0.23246833672005
890	 0.232598618318277
891	 0.232530822524458
892	 0.232494763721669
893	 0.232638753988693
894	 0.232857537929317
895	 0.232881976028544
896	 0.233028333739907
897	 0.233176291840477
898	 0.233252728478106
899	 0.233303727510652
900	 0.23336258081755
901	 0.233547033630702
902	 0.233780777972382
903	 0.233742522332744
904	 0.233797630659642
905	 0.234035130605546
906	 0.234335877072303
907	 0.234359287069498
908	 0.234356501013282
909	 0.234445374706175
910	 0.234664267410743
911	 0.234962822765078
912	 0.235079921933712
913	 0.235153063111242
914	 0.235338774958166
915	 0.235561262365251
916	 0.235610700619106
917	 0.235660027005212
918	 0.235856463874064
919	 0.235911738415546
920	 0.236132046110451
921	 0.236316832139783
922	 0.236287777935696
923	 0.236500833150987
924	 0.236549036474888
925	 0.236600907557051
926	 0.236881910629952
927	 0.237032683987534
928	 0.237260671420634
929	 0.237472037577533
930	 0.23753538340645
931	 0.237630368863847
932	 0.237935160831647
933	 0.238258303368872
934	 0.238327169971687
935	 0.238251161953228
936	 0.238197721158346
937	 0.23829560831241
938	 0.238570372477983
939	 0.238781940301355
940	 0.239076561278344
941	 0.239301360777508
942	 0.239313407224218
943	 0.239660921161928
944	 0.239535396061828
945	 0.239431000090302
946	 0.240033463646336
947	 0.240015551112022
948	 0.239964953197878
949	 0.24010448212867
950	 0.240404770140869
951	 0.240699600485998
952	 0.240928551669768
953	 0.241101583488541
954	 0.241239778045201
955	 0.24121208722193
956	 0.241594347230806
957	 0.241979278750948
958	 0.24183702594678
959	 0.241874084304387
960	 0.24213791148565
961	 0.242405383697541
962	 0.242457910662178
963	 0.242501792205417
964	 0.242770345236428
965	 0.243088932941757
966	 0.243222535911586
967	 0.243246560259301
968	 0.243634317619248
969	 0.244028427908337
970	 0.244103300346972
971	 0.244422053057795
972	 0.244533416832001
973	 0.244711772894992
974	 0.245173674945377
975	 0.245528446413976
976	 0.24565487356271
977	 0.245778329754858
978	 0.246073825623112
979	 0.246414719534676
980	 0.246670890137201
981	 0.246842725014629
982	 0.247004214700946
983	 0.247270986387689
984	 0.247671087913818
985	 0.247996383157023
986	 0.248166816640208
987	 0.248335132189124
988	 0.248731800257936
989	 0.248959201169172
990	 0.248973223442468
991	 0.249151728066139
992	 0.249431267686112
993	 0.249956893367462
994	 0.250161159684303
995	 0.249442179442358
996	 0.250226244297069
997	 0.250667069855672
998	 0.250699642218048
999	 0.251199613110028
1000	 0.25129014272817
1001	 0.255764536056015
1002	 0.255933616268776
1003	 0.256130486927881
1004	 0.256236197309863
1005	 0.256355221533942
1006	 0.25668061122673
1007	 0.256973409643842
1008	 0.257138903014381
1009	 0.257358386043382
1010	 0.257604252168461
1011	 0.257752839369726
1012	 0.257859053341064
1013	 0.258173190844296
1014	 0.258467693106126
1015	 0.258594753585444
1016	 0.258795747578128
1017	 0.259000095699268
1018	 0.259124177738839
1019	 0.259339011299068
1020	 0.259555298958342
1021	 0.2596842695242
1022	 0.259854365327561
1023	 0.260080590507829
1024	 0.260242044231691
1025	 0.260360466068113
1026	 0.260456221344382
1027	 0.260658582557689
1028	 0.260848318184416
1029	 0.260995193429312
1030	 0.261224138238598
1031	 0.261404123631056
1032	 0.261511106735952
1033	 0.261687355647111
1034	 0.261908883279576
1035	 0.262184178661147
1036	 0.262487463058624
1037	 0.262610934821575
1038	 0.262753369047781
1039	 0.262881582880716
1040	 0.263032319816692
1041	 0.263115714441636
1042	 0.263362897581993
1043	 0.263682810179756
1044	 0.263930508897997
1045	 0.264124050192525
1046	 0.26427039381289
1047	 0.264432170386843
1048	 0.264559366362683
1049	 0.264720406655236
1050	 0.265027629956284
1051	 0.265332928334954
1052	 0.265542843461115
1053	 0.265782297445495
1054	 0.26605509860089
1055	 0.266280776705113
1056	 0.266400255951788
1057	 0.26656870101123
1058	 0.266639649256649
1059	 0.266666827565415
1060	 0.266804707433183
1061	 0.266979820572657
1062	 0.267233463727266
1063	 0.267522914279871
1064	 0.267821052801978
1065	 0.268087078730244
1066	 0.268341268156781
1067	 0.26853675617485
1068	 0.268715450114181
1069	 0.268840906227348
1070	 0.268979950618264
1071	 0.269093484390516
1072	 0.269237678411775
1073	 0.269389489102463
1074	 0.269587289840585
1075	 0.269828631385281
1076	 0.269975412244669
1077	 0.270154414426062
1078	 0.270362135651726
1079	 0.270517647463929
1080	 0.270762469542061
1081	 0.270956249508615
1082	 0.271012841418228
1083	 0.271152385465955
1084	 0.271314520978337
1085	 0.271441776068746
1086	 0.271559648855222
1087	 0.271767471740636
1088	 0.272040076585437
1089	 0.27214537281445
1090	 0.272353345440799
1091	 0.272541553694641
1092	 0.272522644366619
1093	 0.272620542734872
1094	 0.272776459703865
1095	 0.272845370136922
1096	 0.272999012536053
1097	 0.273154515342638
1098	 0.273294950384828
1099	 0.273422289992146
1100	 0.273611089083494
1101	 0.273807237603958
1102	 0.274017082268679
1103	 0.274301539394705
1104	 0.274502501347834
1105	 0.274646619735148
1106	 0.274844587037332
1107	 0.275052566296594
1108	 0.275226775116232
1109	 0.275444686160257
1110	 0.275671207544219
1111	 0.275837790202367
1112	 0.276001861322283
1113	 0.276156956369969
1114	 0.276277470962113
1115	 0.276453487280069
1116	 0.276650207625822
1117	 0.276833720939113
1118	 0.277047528359415
1119	 0.277228137043043
1120	 0.277369975139403
1121	 0.277535552817528
1122	 0.277732566791789
1123	 0.278013889050198
1124	 0.27821934968077
1125	 0.278362112288222
1126	 0.27860588801939
1127	 0.278805063733675
1128	 0.278950787824233
1129	 0.279203290322624
1130	 0.27941435077447
1131	 0.279552100817945
1132	 0.279727252858344
1133	 0.279967908772321
1134	 0.280159894101014
1135	 0.280315626966843
1136	 0.280475714232432
1137	 0.280614848504716
1138	 0.280787768608923
1139	 0.280963690844014
1140	 0.281163474332385
1141	 0.281358827040464
1142	 0.281527243428006
1143	 0.281726697857776
1144	 0.28189037310767
1145	 0.282024121144252
1146	 0.282157024233176
1147	 0.282292645177284
1148	 0.282372127454018
1149	 0.282484491060316
1150	 0.282628933331067
1151	 0.282760414522262
1152	 0.282870145568441
1153	 0.283006713696683
1154	 0.283199259484886
1155	 0.283332520486025
1156	 0.283439595804877
1157	 0.283535317940799
1158	 0.283628659814291
1159	 0.283721499730257
1160	 0.283853198957818
1161	 0.284027177073361
1162	 0.28422169936279
1163	 0.284484689559263
1164	 0.284646410650067
1165	 0.284779000256007
1166	 0.284934388270624
1167	 0.285010975875496
1168	 0.285172791419413
1169	 0.285453388107338
1170	 0.285629001832468
1171	 0.285760574655671
1172	 0.285917622762654
1173	 0.286021647221669
1174	 0.286160501250759
1175	 0.286351040720186
1176	 0.28653317730211
1177	 0.286633007928887
1178	 0.286758039068968
1179	 0.286895895270817
1180	 0.287016201788781
1181	 0.287140832313712
1182	 0.287297065033511
1183	 0.287426980911498
1184	 0.287504644476398
1185	 0.287645243501972
1186	 0.287843344212689
1187	 0.287984247122792
1188	 0.288139412420392
1189	 0.288260855183323
1190	 0.288321625701436
1191	 0.288406473786539
1192	 0.288458306667899
1193	 0.288563938464878
1194	 0.28870505274413
1195	 0.288863761841921
1196	 0.288970531419905
1197	 0.289098000563238
1198	 0.289203059633922
1199	 0.289244658161978
1200	 0.289341312160364
1201	 0.289479326604707
1202	 0.289589352990475
1203	 0.28968067538269
1204	 0.289803528277548
1205	 0.289942780832271
1206	 0.290073811548071
1207	 0.290231676375107
1208	 0.290355454790705
1209	 0.290455295118984
1210	 0.290562476052002
1211	 0.290660628589328
1212	 0.290753101033467
1213	 0.290844800095926
1214	 0.290940371038808
1215	 0.290968081868826
1216	 0.291039606587261
1217	 0.291116081202489
1218	 0.291188391524938
1219	 0.291267614519311
1220	 0.291377524702525
1221	 0.291464216879196
1222	 0.291513357480812
1223	 0.291618421928816
1224	 0.29177873042077
1225	 0.291878294799887
1226	 0.291982713350237
1227	 0.292068687012135
1228	 0.292097240706805
1229	 0.292151253874063
1230	 0.292222061691864
1231	 0.292283400942702
1232	 0.292323208302053
1233	 0.292388162165324
1234	 0.292447953130999
1235	 0.292552955866463
1236	 0.292634677254696
1237	 0.292733382870579
1238	 0.292808271597379
1239	 0.292862723442356
1240	 0.29293631799821
1241	 0.293013738934333
1242	 0.293088093718054
1243	 0.293153771491333
1244	 0.293249874133113
1245	 0.293362678669876
1246	 0.293466402680565
1247	 0.293580882311731
1248	 0.293706448867284
1249	 0.293842906362912
1250	 0.293957231919376
1251	 0.294093566510878
1252	 0.29420047472679
1253	 0.294236490985462
1254	 0.294323303504871
1255	 0.294426525714783
1256	 0.294548564209055
1257	 0.294648625095662
1258	 0.294789358874429
1259	 0.294843734463333
1260	 0.294820376059676
1261	 0.294875088078494
1262	 0.294930021911339
1263	 0.294980707670173
1264	 0.295076320127415
1265	 0.295135273091172
1266	 0.295138858938645
1267	 0.29519116112256
1268	 0.295279751545036
1269	 0.295343460513715
1270	 0.295403804820003
1271	 0.295471060771654
1272	 0.295545961999506
1273	 0.295598160978401
1274	 0.295637682486233
1275	 0.295689208282465
1276	 0.295717951483453
1277	 0.295761155940875
1278	 0.295816083165476
1279	 0.295904628904921
1280	 0.295952654643214
1281	 0.295991742893604
1282	 0.29602272848418
1283	 0.296031601554903
1284	 0.296053645011001
1285	 0.296082295685554
1286	 0.296096130721924
1287	 0.29610123467075
1288	 0.296110754902216
1289	 0.296120188306468
1290	 0.296114932748796
1291	 0.296109828926903
1292	 0.296098980891347
1293	 0.296063618993079
1294	 0.296038318898192
1295	 0.296041957853474
1296	 0.296000859830371
1297	 0.295922716496244
1298	 0.295863329975629
1299	 0.295794384895057
1300	 0.29570946355324
1301	 0.295633839043491
1302	 0.295579010177009
1303	 0.295499961182824
1304	 0.295404987138759
1305	 0.295305674248146
1306	 0.295203257788323
1307	 0.295093835699094
1308	 0.294951701620785
1309	 0.294858682000911
1310	 0.294794396761396
1311	 0.294710467042968
1312	 0.294653474292062
1313	 0.294567590759098
1314	 0.294437560244068
1315	 0.29435387911994
1316	 0.294298865652946
1317	 0.294219062172744
1318	 0.294162075161796
1319	 0.294072080046406
1320	 0.293931936630092
1321	 0.293824225604449
1322	 0.293688842831545
1323	 0.29360712199641
1324	 0.293571822818526
1325	 0.293548332884453
1326	 0.293514373503557
1327	 0.293507029779239
1328	 0.293479203342116
1329	 0.29342572142719
1330	 0.293399884765841
1331	 0.293392260109012
1332	 0.293374222184994
1333	 0.29334806886569
1334	 0.293339975416003
1335	 0.293343178008935
1336	 0.293338924888514
1337	 0.293354222751184
1338	 0.293346822323605
1339	 0.293305372015917
1340	 0.293298842470274
1341	 0.293295310789395
1342	 0.293303362526438
1343	 0.293387603572796
1344	 0.293378281598557
1345	 0.293321604774137
1346	 0.293261600320943
1347	 0.293123007451652
1348	 0.293023591474577
1349	 0.292944359587033
1350	 0.292879255777913
1351	 0.292800235930286
1352	 0.292686923286331
1353	 0.292556956473716
1354	 0.292428863285702
1355	 0.292316330132077
1356	 0.292205975377499
1357	 0.2921118675884
1358	 0.292018019643965
1359	 0.291959218874101
1360	 0.291937494539732
1361	 0.291887522938064
1362	 0.291877695430667
1363	 0.291805052076603
1364	 0.291691141390568
1365	 0.291569458444135
1366	 0.291436614880695
1367	 0.291265385391005
1368	 0.291084294769821
1369	 0.290856374909911
1370	 0.290604173323555
1371	 0.290291793777488
1372	 0.289974497430224
1373	 0.289550355675037
1374	 0.289076038660446
1375	 0.288494398498954
1376	 0.287807448457783
1377	 0.287045712326543
1378	 0.286220944343685
1379	 0.285324664388128
1380	 0.284373128638346
1381	 0.283370697954792
1382	 0.282323863306451
1383	 0.281234652628214
1384	 0.280174059604756
1385	 0.279091189669679
1386	 0.278071227965739
1387	 0.27705411710991
1388	 0.276120398643185
1389	 0.275240020146784
1390	 0.274397504719597
1391	 0.273588909445424
1392	 0.272845767386568
1393	 0.272153265001969
1394	 0.271493191507554
1395	 0.270940470758636
1396	 0.27030597614141
1397	 0.269701223152448
1398	 0.269008068166458
1399	 0.268241477916069
1400	 0.267471750834509
1401	 0.266706350163039
1402	 0.265832503443692
1403	 0.264932952764824
1404	 0.263931750232503
1405	 0.262795507334341
1406	 0.261641518951279
1407	 0.260395547543874
1408	 0.259156757887858
1409	 0.257914775646794
1410	 0.256723899376087
1411	 0.255622449076458
1412	 0.254680201293902
1413	 0.253967464550897
1414	 0.253456171573523
1415	 0.2532615847252
1416	 0.253280263386495
1417	 0.253435689500206
1418	 0.253853593467602
1419	 0.254243388456262
1420	 0.254801287718423
1421	 0.255249630155865
1422	 0.255737571594825
1423	 0.256155318269589
1424	 0.256536043481834
1425	 0.256887602782371
1426	 0.257191279408476
1427	 0.257510384146605
1428	 0.257803572993777
1429	 0.258097617073651
1430	 0.258390291391575
1431	 0.25869427136958
1432	 0.258978817564684
1433	 0.259285743683145
1434	 0.259634598174596
1435	 0.259946738465768
1436	 0.26024870951562
1437	 0.260554086430663
1438	 0.260829295560769
1439	 0.261133720376274
1440	 0.261455687466226
1441	 0.261774051921458
1442	 0.262120608597775
1443	 0.262446758670502
1444	 0.262767779624303
1445	 0.263069409985699
1446	 0.263370638720053
1447	 0.263649607404401
1448	 0.263942808727135
1449	 0.26426317157371
1450	 0.264561890506753
1451	 0.264847975466025
1452	 0.26511129345886
1453	 0.265330032518824
1454	 0.265554214303303
1455	 0.265790035654251
1456	 0.265991327158459
1457	 0.266181761361575
1458	 0.2663476463374
1459	 0.266464539784623
1460	 0.266626492734901
1461	 0.266796609956991
1462	 0.266962194082763
1463	 0.267141150301129
1464	 0.267328891744465
1465	 0.267510673445099
1466	 0.267695437209839
1467	 0.267886662414458
1468	 0.268096090965234
1469	 0.268292055138762
1470	 0.268536288021706
1471	 0.26882624556228
1472	 0.269115562004228
1473	 0.269428011059666
1474	 0.269737330295262
1475	 0.270032228656138
1476	 0.270383816113003
1477	 0.270778996241332
1478	 0.271159166153856
1479	 0.271583805932602
1480	 0.271978362145158
1481	 0.27233962948081
1482	 0.272714987306843
1483	 0.273104464550382
1484	 0.273477293623162
1485	 0.273831042543677
1486	 0.274202128055934
1487	 0.274584175414035
1488	 0.274948501950568
1489	 0.275332830955477
1490	 0.275684109213801
1491	 0.275995686568725
1492	 0.276305508917906
1493	 0.276635400101484
1494	 0.276969539795904
1495	 0.277307083604251
1496	 0.277628774823249
1497	 0.277920238089975
1498	 0.278194582688136
1499	 0.278487435150469
1500	 0.278770569224454
1501	 0.279031877562427
1502	 0.279303431483178
1503	 0.279579949221366
1504	 0.279874056804561
1505	 0.280190712544419
1506	 0.280463837846907
1507	 0.28071875694304
1508	 0.280934439944704
1509	 0.281174931470923
1510	 0.281405943055814
1511	 0.281649598453663
1512	 0.281904622468604
1513	 0.282149493356484
1514	 0.282391857834699
1515	 0.282630059010418
1516	 0.282867635027339
1517	 0.283100902035537
1518	 0.28333316735949
1519	 0.283551513949625
1520	 0.283757702659847
1521	 0.283969678631514
1522	 0.284206764223723
1523	 0.284373898542322
1524	 0.284493119499572
1525	 0.284647147125545
1526	 0.284762009648814
1527	 0.284886657468276
1528	 0.285046306168359
1529	 0.2852004996625
1530	 0.285326161940171
1531	 0.285478122852273
1532	 0.285665531074083
1533	 0.285831325725928
1534	 0.285994403717008
1535	 0.286142925722124
1536	 0.286290038553131
1537	 0.286424452573247
1538	 0.286527773106256
1539	 0.286653954551898
1540	 0.286791655181177
1541	 0.28691995026515
1542	 0.287043796783846
1543	 0.287174856301842
1544	 0.287295823872652
1545	 0.287435570485371
1546	 0.287608170300104
1547	 0.287758507799723
1548	 0.287912517554316
1549	 0.288046004099232
1550	 0.288145336753949
1551	 0.288267557797288
1552	 0.288418342936233
1553	 0.288521346504331
1554	 0.288603450572314
1555	 0.288687683347052
1556	 0.288715514601677
1557	 0.288782882330984
1558	 0.288886870614405
1559	 0.288982916279614
1560	 0.289088870283934
1561	 0.2891910357189
1562	 0.289292243274818
1563	 0.28939632377317
1564	 0.289490711927198
1565	 0.289599910449416
1566	 0.289740468808793
1567	 0.289846202532806
1568	 0.289920276862179
1569	 0.290029418546733
1570	 0.290156329658001
1571	 0.290252593805042
1572	 0.29035938859098
1573	 0.290457962195632
1574	 0.290528910683066
1575	 0.29058928970206
1576	 0.290632330506595
1577	 0.290689174633036
1578	 0.290738347109724
1579	 0.290762087568337
1580	 0.290838659386138
1581	 0.290925123654402
1582	 0.290997881930348
1583	 0.291083003615865
1584	 0.291139321629537
1585	 0.291225056235234
1586	 0.291299781313983
1587	 0.291346617706234
1588	 0.291441661892824
1589	 0.291511160793399
1590	 0.291600951036259
1591	 0.291708720640055
1592	 0.291761193994283
1593	 0.291845514626239
1594	 0.291944518418448
1595	 0.292030016707409
1596	 0.292122286514994
1597	 0.292187049572691
1598	 0.292262219811324
1599	 0.292356491080418
1600	 0.292429186668108
1601	 0.292506618853742
1602	 0.292585007021832
1603	 0.292636041806885
1604	 0.292717293871774
1605	 0.292826625305464
1606	 0.292886716961118
1607	 0.292942006511905
1608	 0.293004848697239
1609	 0.293062965671668
1610	 0.293144286564679
1611	 0.29321033175272
1612	 0.293275683530262
1613	 0.293353429368878
1614	 0.293405382850149
1615	 0.29347776698761
1616	 0.293571946807988
1617	 0.293630353019779
1618	 0.293691086850665
1619	 0.293747306704216
1620	 0.293807934978929
1621	 0.29385423237481
1622	 0.293925520616417
1623	 0.294024327941827
1624	 0.294077382864143
1625	 0.29412533191695
1626	 0.294144488314847
1627	 0.29411831798635
1628	 0.29414209247401
1629	 0.29418111711265
1630	 0.294241395195514
1631	 0.294309480316324
1632	 0.294374467536352
1633	 0.294453574860768
1634	 0.294562956367643
1635	 0.29463353583034
1636	 0.294653288482125
1637	 0.294705644076688
1638	 0.294743723159005
1639	 0.294785121327658
1640	 0.294846951117956
1641	 0.294907984047791
1642	 0.294967082895766
1643	 0.295016033019077
1644	 0.29507591821191
1645	 0.295118716457294
1646	 0.295115822495971
1647	 0.295147011436084
1648	 0.295180949821789
1649	 0.295235710768858
1650	 0.295353357431124
1651	 0.2954268685825
1652	 0.295496634374903
1653	 0.295543196939601
1654	 0.295533196147408
1655	 0.295546037648262
1656	 0.295550603311273
1657	 0.295571946483942
1658	 0.295611065825388
1659	 0.295655284409494
1660	 0.295729557254409
1661	 0.295774102829932
1662	 0.29579727458161
1663	 0.295833170003355
1664	 0.295850731509777
1665	 0.295885339040304
1666	 0.295957901843725
1667	 0.296001328716522
1668	 0.29604036633253
1669	 0.296059281295018
1670	 0.296046048333489
1671	 0.296041737100139
1672	 0.296027745946967
1673	 0.29601788941919
1674	 0.296005509276913
1675	 0.296004338496932
1676	 0.296025234874479
1677	 0.296014536029627
1678	 0.295973930935507
1679	 0.295971727117979
1680	 0.295982491451496
1681	 0.295973864223409
1682	 0.29596475668028
1683	 0.295986569287963
1684	 0.296003306939066
1685	 0.296026950740275
1686	 0.296133692847561
1687	 0.296145839269874
1688	 0.296052803239341
1689	 0.29604477317209
1690	 0.29605139038514
1691	 0.296052000407317
1692	 0.296103982798823
1693	 0.29612028664132
1694	 0.296098860169958
1695	 0.296078819762525
1696	 0.296072049648691
1697	 0.296036858961462
1698	 0.29595447344024
1699	 0.295916010110522
1700	 0.295883162164093
1701	 0.295863693481245
1702	 0.29589499751089
1703	 0.295865305027927
1704	 0.295802671268912
1705	 0.295765543940991
1706	 0.295705852417949
1707	 0.295660054716286
1708	 0.295636639819243
1709	 0.295605047172076
1710	 0.295577539616336
1711	 0.295516663886258
1712	 0.29543612601638
1713	 0.295390237249792
1714	 0.29534026158104
1715	 0.295273331294505
1716	 0.295246921076518
1717	 0.29514427363453
1718	 0.294963011211998
1719	 0.29485962567171
1720	 0.294745054738624
1721	 0.294642756517933
1722	 0.294564794565955
1723	 0.294484006807545
1724	 0.294382706257061
1725	 0.294272892809434
1726	 0.294154895898068
1727	 0.293991150259395
1728	 0.293848988548425
1729	 0.293711699062499
1730	 0.293572256049314
1731	 0.293475073822485
1732	 0.293339192106233
1733	 0.293229974735001
1734	 0.293145939481803
1735	 0.29300034630316
1736	 0.292868273231719
1737	 0.292704523424249
1738	 0.292555799439724
1739	 0.292426079943276
1740	 0.292288629445789
1741	 0.292168522602587
1742	 0.292028034362256
1743	 0.291851288037075
1744	 0.2917276342672
1745	 0.291628008907657
1746	 0.291501596108063
1747	 0.291421855576197
1748	 0.291267145808323
1749	 0.291008776789199
1750	 0.290860229527599
1751	 0.290754641369366
1752	 0.290618769023421
1753	 0.290535951109819
1754	 0.290395162869602
1755	 0.29017797441864
1756	 0.29002266761375
1757	 0.289905187296852
1758	 0.289735324736393
1759	 0.28953929612432
1760	 0.28937797610839
1761	 0.28925834249558
1762	 0.28917572620534
1763	 0.28908442216462
1764	 0.28898754364838
1765	 0.288861169697282
1766	 0.288748647808828
1767	 0.288630766250702
1768	 0.288470513880829
1769	 0.288304505410747
1770	 0.288167505768385
1771	 0.288021528237833
1772	 0.287841702776039
1773	 0.287714165630819
1774	 0.287597167418557
1775	 0.2874825872585
1776	 0.287402451488342
1777	 0.287301716495667
1778	 0.287213982235432
1779	 0.287120264444147
1780	 0.28712301518717
1781	 0.287081041889825
1782	 0.287026701164176
1783	 0.286967724639667
1784	 0.286871562989566
1785	 0.286795949791966
1786	 0.286700881324597
1787	 0.286650019638136
1788	 0.28664592420479
1789	 0.28663238667087
1790	 0.286662579473314
1791	 0.286654781208562
1792	 0.286604947060144
1793	 0.286558476934818
1794	 0.286524619232258
1795	 0.286515182952826
1796	 0.28649343215768
1797	 0.286494430230759
1798	 0.2865343987843
1799	 0.286530984141128
1800	 0.286550927820462
1801	 0.286524984725396
1802	 0.286414902678464
1803	 0.286394150391692
1804	 0.286397965942818
1805	 0.286410776052781
1806	 0.28647569933696
1807	 0.286442050574077
1808	 0.286395558818602
1809	 0.286366951190267
1810	 0.286298048308076
1811	 0.286271102518419
1812	 0.286291937830912
1813	 0.286285344895107
1814	 0.286297102277756
1815	 0.286327328719015
1816	 0.286338253400714
1817	 0.286361577398641
1818	 0.286450505421797
1819	 0.286521719176117
1820	 0.286527165305555
1821	 0.286480295287712
1822	 0.286435146935766
1823	 0.286371740795961
1824	 0.286398242025139
1825	 0.286496673246502
1826	 0.286590849926213
1827	 0.286693065252205
1828	 0.286698679402674
1829	 0.286673044107111
1830	 0.286711716718147
1831	 0.285107547424254
1832	 0.284990645215124
1833	 0.284902072179929
1834	 0.284834805361224
1835	 0.284861385488428
1836	 0.284806241075463
1837	 0.284680173313402
1838	 0.284613799800311
1839	 0.284557787915066
1840	 0.284479839537906
1841	 0.284466842663789
1842	 0.284463170212845
1843	 0.284408024136203
1844	 0.284322836589857
1845	 0.284227562021718
1846	 0.284062078116701
1847	 0.28396339425715
1848	 0.283875485830498
1849	 0.283839102188733
1850	 0.283734821377778
1851	 0.283644082254622
1852	 0.283540113080793
1853	 0.283339570571878
1854	 0.28308027921482
1855	 0.282791345706955
1856	 0.282485480260838
1857	 0.282090110493255
1858	 0.281685168205674
1859	 0.281294841620473
1860	 0.280874574561311
1861	 0.280386955791691
1862	 0.279792372893847
1863	 0.279123185650377
1864	 0.278392362734019
1865	 0.277617473355593
1866	 0.276735802628486
1867	 0.275833678786425
1868	 0.274892896722221
1869	 0.273965323157828
1870	 0.272877785372408
1871	 0.271713117586407
1872	 0.270557604955056
1873	 0.269219275869587
1874	 0.267805679563578
1875	 0.266397284362389
1876	 0.264892124258289
1877	 0.263291536868377
1878	 0.261592880168032
1879	 0.259819282759432
1880	 0.257928001167989
1881	 0.255945882867599
1882	 0.253856654553686
1883	 0.251623377257549
1884	 0.249278849913608
1885	 0.246838462022805
1886	 0.244261590584896
1887	 0.241568051180531
1888	 0.238819998788127
1889	 0.23594504976408
1890	 0.232924518740613
1891	 0.229819391226754
1892	 0.226676487679386
1893	 0.223432237278735
1894	 0.220195723773945
1895	 0.216897373324564
1896	 0.213515757965652
1897	 0.210223609565696
1898	 0.206911393201614
1899	 0.203713064320055
1900	 0.200674567873077
1901	 0.197795220132625
1902	 0.194964303465681
1903	 0.192343688754573
1904	 0.189840845854385
1905	 0.187540202715088
1906	 0.185588329256882
1907	 0.183781081063207
1908	 0.182186047342371
1909	 0.180804208462976
1910	 0.179386627564624
1911	 0.178256017331554
1912	 0.177318708651661
1913	 0.176638118673724
1914	 0.176066697281589
1915	 0.175751231499977
1916	 0.175435969767912
1917	 0.175154267318583
1918	 0.175045902999986
1919	 0.174969027429545
1920	 0.174993385547958
1921	 0.175145246515231
1922	 0.175324312571688
1923	 0.175558935166687
1924	 0.175868733247783
1925	 0.17626823946523
1926	 0.176691136775196
1927	 0.177131804487849
1928	 0.177529540766756
1929	 0.177934782867373
1930	 0.178339054577905
1931	 0.178684434430113
1932	 0.179150861276472
1933	 0.179681729644814
1934	 0.180174536544691
1935	 0.180676172300494
1936	 0.181179721166544
1937	 0.181626881448243
1938	 0.182098430909435
1939	 0.182591636887433
1940	 0.183102407796839
1941	 0.18363166234222
1942	 0.184066588378465
1943	 0.18451049300986
1944	 0.18499617946945
1945	 0.185534650737743
1946	 0.186165492696638
1947	 0.186761971067912
1948	 0.187383925135827
1949	 0.187995211353001
1950	 0.188581496051811
1951	 0.189153314037857
1952	 0.189703115176539
1953	 0.190290290281165
1954	 0.190863371468845
1955	 0.191426536051815
1956	 0.19212518656236
1957	 0.192795180140556
1958	 0.193410757226012
1959	 0.194000180796563
1960	 0.194629519569807
1961	 0.195251239221611
1962	 0.19580342663753
1963	 0.19639044381134
1964	 0.197021342337235
1965	 0.197591964634845
1966	 0.198205981365454
1967	 0.198888776172779
1968	 0.19954057202898
1969	 0.200179781889929
1970	 0.20078973985857
1971	 0.201442731918743
1972	 0.202111654459337
1973	 0.202755932171468
1974	 0.203406622204559
1975	 0.204068866672583
1976	 0.204669673912196
1977	 0.20529169088992
1978	 0.205951896163788
1979	 0.206527645436423
1980	 0.207088166437667
1981	 0.207766540368462
1982	 0.208431597502341
1983	 0.209095706642651
1984	 0.209786684099799
1985	 0.210513262934463
1986	 0.211241776542498
1987	 0.21198467373165
1988	 0.212756225423962
1989	 0.213502150831215
1990	 0.214238270101677
1991	 0.214972528555287
1992	 0.215688167700528
1993	 0.216409208202888
1994	 0.217102553826583
1995	 0.217832313095807
1996	 0.218569326607444
1997	 0.219323811135529
1998	 0.220136056266073
1999	 0.220879824752777
2000	 0.221597429372205
2001	 0.22229079444755
2002	 0.222926586939026
2003	 0.223597908731796
2004	 0.224437316280916
2005	 0.225197980525895
2006	 0.22584963554197
2007	 0.226524781990696
2008	 0.227144420343194
2009	 0.227581760714969
2010	 0.22815465949834
2011	 0.228841120894204
2012	 0.229419751759409
2013	 0.22988351893864
2014	 0.230489571325168
2015	 0.231147798386037
2016	 0.231823373293882
2017	 0.23244161540718
2018	 0.233008348579862
2019	 0.233487164947092
2020	 0.233895670402492
2021	 0.234448242872457
2022	 0.235193985797064
2023	 0.235740260699637
2024	 0.236197810047636
2025	 0.236747803078553
2026	 0.237260081199005
2027	 0.23779086934031
2028	 0.238416535869997
2029	 0.23900964408922
2030	 0.23943130648298
2031	 0.2397846698188
2032	 0.240158892652933
2033	 0.240513302071211
2034	 0.240950085333967
2035	 0.241417002994646
2036	 0.241831105875814
2037	 0.242242172037333
2038	 0.24262796651345
2039	 0.242991785439883
2040	 0.243308669557122
2041	 0.243565785292083
2042	 0.243866426079149
2043	 0.244108375614315
2044	 0.244424861007325
2045	 0.244895602048458
2046	 0.245287900230044
2047	 0.245592910865935
2048	 0.245863619287693
2049	 0.246087415776765
2050	 0.246341927528255
2051	 0.246657573748116
2052	 0.247080428631627
2053	 0.247479103352848
2054	 0.247918910502524
2055	 0.248283562291724
2056	 0.248650704831739
2057	 0.248992968674814
2058	 0.24924546521433
2059	 0.249560727296151
2060	 0.249926085516528
2061	 0.250236351149467
2062	 0.250539268599204
2063	 0.250794520432629
2064	 0.251032928722409
2065	 0.25119659419763
2066	 0.251403842338121
2067	 0.251585206158084
2068	 0.251848026734835
2069	 0.25219593570111
2070	 0.252467817543149
2071	 0.252738097241525
2072	 0.253010454547127
2073	 0.25323719835988
2074	 0.253468813366814
2075	 0.253738438929727
2076	 0.253995523268099
2077	 0.254154391257931
2078	 0.254336906033366
2079	 0.254584380717564
2080	 0.254815338595628
2081	 0.255064983801817
2082	 0.255393088444544
2083	 0.255619889664288
2084	 0.255741635602635
2085	 0.255988042394172
2086	 0.256294525745373
2087	 0.256531121755325
2088	 0.256792905249128
2089	 0.257060273079033
2090	 0.257245864291445
2091	 0.257466431609969
2092	 0.257733354881345
2093	 0.258053477079894
2094	 0.258271834929716
2095	 0.258493244065999
2096	 0.258678377760935
2097	 0.258833225799348
2098	 0.258983378257465
2099	 0.259070469431922
2100	 0.259229451356197
2101	 0.259411402944039
2102	 0.259597072350217
2103	 0.259889557248055
2104	 0.260062228894654
2105	 0.260164203438647
2106	 0.26026597900368
2107	 0.260230882852181
2108	 0.260321167403091
2109	 0.260462096459786
2110	 0.260632045905079
2111	 0.260933295622006
2112	 0.261241268691617
2113	 0.261443088721297
2114	 0.261682022946309
2115	 0.261911869229337
2116	 0.262075675998664
2117	 0.26230118832861
2118	 0.262614602158053
2119	 0.26283674379974
2120	 0.263051479357653
2121	 0.263206202488046
2122	 0.26328030849823
2123	 0.263380181694645
2124	 0.263427364639877
2125	 0.263501952690131
2126	 0.263539941292323
2127	 0.263702869733892
2128	 0.263846106751812
2129	 0.264065889469537
2130	 0.264182662686287
2131	 0.264184548218282
2132	 0.264190655739652
2133	 0.264054972519699
2134	 0.26403371869934
2135	 0.264138916426878
2136	 0.264035945817554
2137	 0.263849144128376
2138	 0.263663321180082
2139	 0.263385523401397
2140	 0.263096886886666
2141	 0.262767291965093
2142	 0.262494194575409
2143	 0.262205829590263
2144	 0.261875223439853
2145	 0.261629413676696
2146	 0.261288665138694
2147	 0.260822611118158
2148	 0.260378265586184
2149	 0.259938261280306
2150	 0.259509236055502
2151	 0.259144975248167
2152	 0.258720616389118
2153	 0.258314499511031
2154	 0.25792339531321
2155	 0.257527544353623
2156	 0.257116230643151
2157	 0.256717672076732
2158	 0.256317655071835
2159	 0.255928130287763
2160	 0.255522578956107
2161	 0.255169910177532
2162	 0.254862649943834
2163	 0.254547167860546
2164	 0.254266543882236
2165	 0.253981528494515
2166	 0.253632145698288
2167	 0.253378686060715
2168	 0.253213943089693
2169	 0.252983037515182
2170	 0.252895898109301
2171	 0.25286850587725
2172	 0.252640654791504
2173	 0.252562796554276
2174	 0.252456587416744
2175	 0.25232198010527
2176	 0.252172941924764
2177	 0.252051373592743
2178	 0.251911294635564
2179	 0.251770838170798
2180	 0.251557230934785
2181	 0.251331770775545
2182	 0.251100198788066
2183	 0.250771689897675
2184	 0.25045877673496
2185	 0.250236996841579
2186	 0.249888411087559
2187	 0.249402952217915
2188	 0.248977673739122
2189	 0.248494146217424
2190	 0.24806518116312
2191	 0.24779315583613
2192	 0.247401674184402
2193	 0.246820172434557
2194	 0.246196550762339
2195	 0.245414411445849
2196	 0.244585762356692
2197	 0.243879858164042
2198	 0.243283675775544
2199	 0.242581446657044
2200	 0.24187151642978
2201	 0.241155240400948
2202	 0.240344149418739
2203	 0.239663684044949
2204	 0.239026377165098
2205	 0.238470810831579
2206	 0.237889768399114
2207	 0.237550497847973
2208	 0.237255131725096
2209	 0.237260627870074
2210	 0.237515182491096
2211	 0.237993333176943
2212	 0.238868116858065
2213	 0.239685180754043
2214	 0.240659836107386
2215	 0.24166322811912
2216	 0.242821064461251
2217	 0.243766254571794
2218	 0.244855782749558
2219	 0.245809943429308
2220	 0.246413231627288
2221	 0.247068607352623
2222	 0.247556952625589
2223	 0.247982878349285
2224	 0.24831813988413
2225	 0.24856984976963
2226	 0.248799199424616
2227	 0.248899847912033
2228	 0.249055436752672
2229	 0.249280645931143
2230	 0.249326283966013
2231	 0.24927676128021
2232	 0.249191213744736
2233	 0.248930135339708
2234	 0.248849355208193
2235	 0.248830468033016
2236	 0.248805491375773
2237	 0.248864649072007
2238	 0.248826806348552
2239	 0.248737538954776
2240	 0.248649456887248
2241	 0.248527615072081
2242	 0.248461131879582
2243	 0.248339762627194
2244	 0.248316801943668
2245	 0.248387406149591
2246	 0.248445327369136
2247	 0.248573442678587
2248	 0.248671298478778
2249	 0.248743997309114
2250	 0.248740945335039
2251	 0.248635499095155
2252	 0.248574550453387
2253	 0.24841368597193
2254	 0.248202350763729
2255	 0.248161526551889
2256	 0.248073167510709
2257	 0.247965273003259
2258	 0.24790421872912
2259	 0.24781702589634
2260	 0.247642586147765
2261	 0.247567489542679
2262	 0.247609599797522
2263	 0.247522090108652
2264	 0.247348280672738
2265	 0.247253422257866
2266	 0.247153163351738
2267	 0.247069890090277
2268	 0.247128914329628
2269	 0.246965081431791
2270	 0.246653695100341
2271	 0.246335777138334
2272	 0.245895024165205
2273	 0.245556382515945
2274	 0.245274458512023
2275	 0.244954656965149
2276	 0.244566250811345
2277	 0.244218887585579
2278	 0.24388657452515
2279	 0.243559714046195
2280	 0.243332378481548
2281	 0.24304774180053
2282	 0.24278082993533
2283	 0.242349314377897
2284	 0.241940155521908
2285	 0.241500039078374
2286	 0.241100767186529
2287	 0.240791511690661
2288	 0.240444876118997
2289	 0.240123199015046
2290	 0.239830607617033
2291	 0.239589041185716
2292	 0.239349728177762
2293	 0.239099461629509
2294	 0.238712966483758
2295	 0.23833696805537
2296	 0.238047540678272
2297	 0.237712127728982
2298	 0.237494900542949
2299	 0.237191050350867
2300	 0.236771949250444
2301	 0.236339652601799
2302	 0.235966212242352
2303	 0.235546661723887
2304	 0.235243072778373
2305	 0.235106041426181
2306	 0.234781358607492
2307	 0.234373980615706
2308	 0.234041159311324
2309	 0.233564076149503
2310	 0.233314548461875
2311	 0.233296074705789
2312	 0.233146248261813
2313	 0.233068764153726
2314	 0.2329511561344
2315	 0.232728084567351
2316	 0.232557712532588
2317	 0.232425689058954
2318	 0.232297586749894
2319	 0.232148800165982
2320	 0.232096112448794
2321	 0.232077811356046
2322	 0.232014574388407
2323	 0.232074858159234
2324	 0.232012507712066
2325	 0.231803287942008
2326	 0.231773963948322
2327	 0.231935169097363
2328	 0.231779651957237
2329	 0.231521566481365
2330	 0.231260820346839
2331	 0.230573330236794
2332	 0.230311864279598
2333	 0.230413491555396
2334	 0.230353927562443
2335	 0.230463418598053
2336	 0.230385146579227
2337	 0.230148364219188
2338	 0.229898631330325
2339	 0.229598236863202
2340	 0.229295491337619
2341	 0.228918313232274
2342	 0.228565589135245
2343	 0.228301530734215
2344	 0.227795635360571
2345	 0.227405597340047
2346	 0.227086715461788
2347	 0.226606516988449
2348	 0.226122093340721
2349	 0.225640397768351
2350	 0.225336957427731
2351	 0.224965786655249
2352	 0.224831811013993
2353	 0.224946649541214
2354	 0.2248210972065
2355	 0.224787558547088
2356	 0.224681951226171
2357	 0.224329682607287
2358	 0.223797127704372
2359	 0.223295011373458
2360	 0.223070166937471
2361	 0.222754514997022
2362	 0.222582399088463
2363	 0.222272973877712
2364	 0.221564175806895
2365	 0.221207079295275
2366	 0.220862368560919
2367	 0.220425102383556
2368	 0.220422586926858
2369	 0.220462163275666
2370	 0.220029359882658
2371	 0.219518090643038
2372	 0.218958963577612
2373	 0.217956588105566
2374	 0.217019817230741
2375	 0.216544473549724
2376	 0.216040036502425
2377	 0.215272857649049
2378	 0.21464465577645
2379	 0.213857650046036
2380	 0.212976582142719
2381	 0.21236511141254
2382	 0.211816364395388
2383	 0.211342830550579
2384	 0.210925195261321
2385	 0.210873390371701
2386	 0.210928729909769
2387	 0.210519852703393
2388	 0.210104890001605
2389	 0.209574425717
2390	 0.208871841128034
2391	 0.208510710201871
2392	 0.208347107716379
2393	 0.20817079790737
2394	 0.207845996009247
2395	 0.207610277589138
2396	 0.207186148310155
2397	 0.206850915221253
2398	 0.206563603493434
2399	 0.205749107612172
2400	 0.205197077953089
2401	 0.204589188730584
2402	 0.203825272700941
2403	 0.20322602639423
2404	 0.202370918488964
2405	 0.201502785675824
2406	 0.201040724825409
2407	 0.200984433975354
2408	 0.20119857492006
2409	 0.201096379562285
2410	 0.200518116239871
2411	 0.199982035597434
2412	 0.199506628795854
2413	 0.19940826440682
2414	 0.199742851963282
2415	 0.199557940976193
2416	 0.198519446555979
2417	 0.19737543634292
2418	 0.196329125451326
2419	 0.195505607077869
2420	 0.195609434002097
2421	 0.195846784722498
2422	 0.19539320017305
2423	 0.19476153204756
2424	 0.194141867881726
2425	 0.193348418214701
2426	 0.192582972402011
2427	 0.191566670990953
2428	 0.190978246423282
2429	 0.190598897738845
2430	 0.190176185879625
2431	 0.190256595658144
2432	 0.189845660535323
2433	 0.189121655290942
2434	 0.188385663941749
2435	 0.187209025753032
2436	 0.186545214055178
2437	 0.186095249417267
2438	 0.185545967734292
2439	 0.185399675262101
2440	 0.184922203884305
2441	 0.184530779803655
2442	 0.184078037471992
2443	 0.183733142460456
2444	 0.183399345905625
2445	 0.183326999489696
2446	 0.183622500057458
2447	 0.183094223569011
2448	 0.182157030499789
2449	 0.181151667863996
2450	 0.17979174745345
2451	 0.178606351680057
2452	 0.177945331766378
2453	 0.176942676230012
2454	 0.175766898863861
2455	 0.175523874520261
2456	 0.175291168698303
2457	 0.175338558471214
2458	 0.176182978721058
2459	 0.176003331311959
2460	 0.175048458010345
2461	 0.174415661444441
2462	 0.174285617003766
2463	 0.174340617856301
2464	 0.174407286098009
2465	 0.174538297517436
2466	 0.173512187321446
2467	 0.172141487537965
2468	 0.172059034189087
2469	 0.172275306197484
2470	 0.172150901145397
2471	 0.172016762825636
2472	 0.171880188426012
2473	 0.170989227150404
2474	 0.170070582786027
2475	 0.170114095784203
2476	 0.16962561668135
2477	 0.169006359894124
2478	 0.168528306885746
2479	 0.169177591382764
2480	 0.16979419039854
2481	 0.169862029422914
2482	 0.169622470853733
2483	 0.16878402088838
2484	 0.167689646722964
2485	 0.166693546940995
2486	 0.165919979415434
2487	 0.164436280409796
2488	 0.163894925403906
2489	 0.164097437220925
2490	 0.163103807256115
2491	 0.162408374028661
2492	 0.161714276414651
2493	 0.16077540264848
2494	 0.161398418003793
2495	 0.162795253172245
2496	 0.161726790754001
2497	 0.161057011729663
2498	 0.160889115424539
2499	 0.160073836332357
2500	 0.161921961912685
