Wavelength	signature0007.asd
350	 0.221094820850421
351	 0.222042090330306
352	 0.212080279211742
353	 0.207587116709369
354	 0.22467845190176
355	 0.223007553759532
356	 0.221442912939409
357	 0.223022341168181
358	 0.217992821339633
359	 0.217543313655159
360	 0.215484089073178
361	 0.213306138557341
362	 0.224262957229167
363	 0.22395791895973
364	 0.219762039541654
365	 0.220560117157723
366	 0.222186187056785
367	 0.224226376741133
368	 0.221129223536313
369	 0.211624720651694
370	 0.219097769472987
371	 0.225676023187751
372	 0.225910119817911
373	 0.223830636374258
374	 0.224304750082175
375	 0.224385250945223
376	 0.223395054794717
377	 0.224110258351273
378	 0.225093660099773
379	 0.22596654783724
380	 0.226940605032997
381	 0.229382522181132
382	 0.228925706413974
383	 0.225548937806921
384	 0.222344998510792
385	 0.228540741656666
386	 0.231163637093582
387	 0.229090209198065
388	 0.228162373251737
389	 0.227276938496593
390	 0.228470083841618
391	 0.230160842438392
392	 0.227211562967599
393	 0.22850871451919
394	 0.232015651974982
395	 0.234318214114827
396	 0.23365621601096
397	 0.23281626166184
398	 0.232762484904371
399	 0.233299690582973
400	 0.232358898703671
401	 0.231586614795398
402	 0.232671940062842
403	 0.236212888249717
404	 0.234625552052843
405	 0.233523308052601
406	 0.234933155558556
407	 0.234731863223156
408	 0.234531556867568
409	 0.234461845081901
410	 0.234713964843458
411	 0.23654458299832
412	 0.23737792442164
413	 0.237202929915689
414	 0.237105161074451
415	 0.237824410039845
416	 0.23878449415381
417	 0.239449116110403
418	 0.239472970083699
419	 0.239363533154558
420	 0.239405578765376
421	 0.239681688610288
422	 0.240030118841032
423	 0.240333668671559
424	 0.24051867684028
425	 0.240612311515983
426	 0.240870482567
427	 0.241402986836984
428	 0.241958150743128
429	 0.242193713674982
430	 0.243020347936916
431	 0.243524028303745
432	 0.243460532422762
433	 0.24368597754698
434	 0.243968308339853
435	 0.244283770491736
436	 0.244685178349226
437	 0.24535963071889
438	 0.246080471609258
439	 0.246619244471344
440	 0.246820501054503
441	 0.246863177707657
442	 0.247546156992056
443	 0.248411734895873
444	 0.247757503580695
445	 0.248464128547536
446	 0.249568085486738
447	 0.249977268182572
448	 0.250153452504288
449	 0.250798092337771
450	 0.251406675904047
451	 0.251277178941542
452	 0.251541041822444
453	 0.252208651982033
454	 0.252919377036757
455	 0.2530834577963
456	 0.252993237057345
457	 0.253640693914853
458	 0.255015097033872
459	 0.254748111677464
460	 0.254419877353266
461	 0.25467037383276
462	 0.255576383035991
463	 0.25626109128546
464	 0.256176662540044
465	 0.255850167512777
466	 0.256542005633243
467	 0.257066466788082
468	 0.257314320827653
469	 0.257511327695993
470	 0.25822424545292
471	 0.258494974438513
472	 0.258438146771968
473	 0.25853145137983
474	 0.25912757260824
475	 0.259626642915184
476	 0.259875332375067
477	 0.260104484852637
478	 0.260370486605026
479	 0.260788080221688
480	 0.261265169639808
481	 0.2613416960751
482	 0.261263442492833
483	 0.261400741650574
484	 0.261973818942627
485	 0.262451212700786
486	 0.262772637277554
487	 0.262939701873122
488	 0.263025467407738
489	 0.263430622520315
490	 0.263942008155741
491	 0.264330089837646
492	 0.264476247030302
493	 0.265096793007179
494	 0.265691059209854
495	 0.265692046935372
496	 0.266018462879587
497	 0.26629203582096
498	 0.266529987424979
499	 0.267031992241842
500	 0.26722413227085
501	 0.267477114395862
502	 0.268018833674623
503	 0.268570408966168
504	 0.268951905742519
505	 0.269256927929818
506	 0.269612525567136
507	 0.26977692485646
508	 0.269988136600458
509	 0.27030652676966
510	 0.270632651441145
511	 0.271035480049938
512	 0.271342855298194
513	 0.271526815615734
514	 0.271936919395298
515	 0.272272116022479
516	 0.272463386158868
517	 0.272623556951751
518	 0.273365821940285
519	 0.2738372176403
520	 0.273915776979032
521	 0.274208695448367
522	 0.274578241869826
523	 0.274964770366336
524	 0.275293037276406
525	 0.275384118449006
526	 0.275842041372213
527	 0.276468525966742
528	 0.276806171237325
529	 0.276996559830552
530	 0.27739468761022
531	 0.27798212318624
532	 0.278345772235328
533	 0.278789696770721
534	 0.279204494545116
535	 0.279517086278059
536	 0.27996529983792
537	 0.280482546519747
538	 0.281001139757945
539	 0.281469171727246
540	 0.281969500902262
541	 0.282469455937299
542	 0.282970805338436
543	 0.283528196384716
544	 0.284053187784861
545	 0.284664226819882
546	 0.285442283442254
547	 0.286202856021234
548	 0.28694133544208
549	 0.287715355072865
550	 0.288595397648541
551	 0.289406705992254
552	 0.29020498923099
553	 0.2910337098822
554	 0.291866755534222
555	 0.292861414792302
556	 0.293913341706361
557	 0.294887557889377
558	 0.295851121292473
559	 0.296917769785116
560	 0.297990653327179
561	 0.298854563522011
562	 0.299943688195484
563	 0.3010653533192
564	 0.302100839945765
565	 0.303250799997138
566	 0.304674702722056
567	 0.306093905581483
568	 0.307194292479228
569	 0.308390038408346
570	 0.309505535715136
571	 0.310543530588632
572	 0.311701969611846
573	 0.312952126668706
574	 0.314326604771605
575	 0.315774336293311
576	 0.317014147800606
577	 0.318134260556138
578	 0.319335505453301
579	 0.320774734906543
580	 0.321956175509567
581	 0.323112637329595
582	 0.324312067116384
583	 0.325355487170459
584	 0.326446495085638
585	 0.327492339675374
586	 0.328436528984791
587	 0.329539616112281
588	 0.330675934419219
589	 0.331742105253024
590	 0.332672558161864
591	 0.333668625958904
592	 0.334635026770719
593	 0.335518148589835
594	 0.336366110965195
595	 0.337154193167844
596	 0.337793609496541
597	 0.338288791118598
598	 0.339083202456033
599	 0.339805888343792
600	 0.34035785811061
601	 0.340863570078203
602	 0.341503863479788
603	 0.342251103180748
604	 0.342973211471594
605	 0.343390837741013
606	 0.343873491959293
607	 0.344389357924048
608	 0.344810009818654
609	 0.345246571040631
610	 0.345674695113255
611	 0.346120681774888
612	 0.3466412403381
613	 0.346955810651304
614	 0.347320039361186
615	 0.347874646065349
616	 0.348263095893036
617	 0.348592844541159
618	 0.348997578712091
619	 0.349553515158336
620	 0.349852434684721
621	 0.350204984145104
622	 0.350687160962395
623	 0.351065652420346
624	 0.351449066020196
625	 0.351825730079553
626	 0.35219728519165
627	 0.352686027925093
628	 0.353087494718534
629	 0.353438547930385
630	 0.353887555159069
631	 0.354385478701798
632	 0.354866532946664
633	 0.355290218324187
634	 0.355651800661458
635	 0.356167099757661
636	 0.356718655620111
637	 0.357179024911995
638	 0.35769777823818
639	 0.358292677384289
640	 0.358853619741169
641	 0.359234611651632
642	 0.359774399346432
643	 0.360329316071723
644	 0.360816991555992
645	 0.361356193097224
646	 0.361763106078965
647	 0.362209101797462
648	 0.362833499079692
649	 0.363203874846214
650	 0.36361728172957
651	 0.364120822435029
652	 0.364565282490404
653	 0.364962365174338
654	 0.365435645571212
655	 0.36599590682244
656	 0.366412401362164
657	 0.366774676843966
658	 0.367180179028195
659	 0.367683286548646
660	 0.368108496463593
661	 0.368540726360166
662	 0.369054120402293
663	 0.369686368164297
664	 0.370215122318484
665	 0.370747900459519
666	 0.371350155064816
667	 0.371864759515628
668	 0.372460139172447
669	 0.373033757687795
670	 0.373463323881717
671	 0.374072594715174
672	 0.374710387664005
673	 0.375255043562751
674	 0.375658574077156
675	 0.376206435260296
676	 0.376789737609006
677	 0.377290680580104
678	 0.377742890558463
679	 0.378228585274769
680	 0.378803390257
681	 0.379452955220699
682	 0.379863726811933
683	 0.380339770941276
684	 0.380966802805545
685	 0.381567895809335
686	 0.382180369471957
687	 0.382787524303115
688	 0.383382724054771
689	 0.383993489172717
690	 0.384683008517039
691	 0.385368544303887
692	 0.385941463255262
693	 0.386534026607413
694	 0.387196149373086
695	 0.387904312921092
696	 0.388567458293313
697	 0.389177759892615
698	 0.389788050187604
699	 0.390416660427244
700	 0.390960657878141
701	 0.391497071600626
702	 0.392031625511608
703	 0.392544938529698
704	 0.393056072704457
705	 0.393548643076295
706	 0.394030584956061
707	 0.394533956857033
708	 0.395005984632164
709	 0.395451279495601
710	 0.395885682938721
711	 0.396316041302112
712	 0.396792082818014
713	 0.397253086380498
714	 0.397629570911304
715	 0.398079245182601
716	 0.398542924852188
717	 0.398974565477667
718	 0.399360929455392
719	 0.399782459784208
720	 0.400174463841438
721	 0.400498572677343
722	 0.400832394505699
723	 0.401164165683453
724	 0.401482681060617
725	 0.401786361195742
726	 0.402133895375646
727	 0.402486128410086
728	 0.40279281849072
729	 0.403012092137105
730	 0.403271579160511
731	 0.403584558060191
732	 0.403906364058367
733	 0.404119789494847
734	 0.404363222720083
735	 0.404613059594426
736	 0.404805450185412
737	 0.404940868023644
738	 0.405094504869674
739	 0.405308934953405
740	 0.405579041680269
741	 0.405723807207136
742	 0.405856023577541
743	 0.40605121276292
744	 0.406261095492167
745	 0.406437482381695
746	 0.406620354465206
747	 0.406841451505016
748	 0.407013690655792
749	 0.407158895602654
750	 0.407322993075212
751	 0.407542586702861
752	 0.407688157257038
753	 0.407780396596722
754	 0.407871425333238
755	 0.408026218431771
756	 0.408138085386082
757	 0.408211120497722
758	 0.408271148845628
759	 0.408328356391949
760	 0.408412959647596
761	 0.408473601064112
762	 0.408458540405626
763	 0.408501512891663
764	 0.408567140577989
765	 0.408593149249612
766	 0.408519380478995
767	 0.408495863216865
768	 0.408531355808699
769	 0.408580133014805
770	 0.408543702558502
771	 0.408577976944455
772	 0.408607413170703
773	 0.408544956034341
774	 0.408508893948026
775	 0.408541923697055
776	 0.408544733880357
777	 0.408391124729269
778	 0.408388290499056
779	 0.408398789824087
780	 0.408353407416211
781	 0.408308964568094
782	 0.408244510639077
783	 0.408203806594789
784	 0.408206536710417
785	 0.408197419099022
786	 0.408155406625454
787	 0.40808328433128
788	 0.407996048524361
789	 0.407900013196175
790	 0.407846482446252
791	 0.407814288294439
792	 0.407738686528816
793	 0.407642558296869
794	 0.407570826046411
795	 0.4074959352779
796	 0.407305574899443
797	 0.40727056432146
798	 0.407225886122896
799	 0.407057865578259
800	 0.407021712188303
801	 0.40687862375807
802	 0.406714776724574
803	 0.406670728817012
804	 0.406594640054298
805	 0.406433792790296
806	 0.406272503579106
807	 0.406237361292683
808	 0.405990771971495
809	 0.405874244143016
810	 0.405903566157077
811	 0.405645762151391
812	 0.405556358683546
813	 0.405472572360474
814	 0.40527414285376
815	 0.405200590612428
816	 0.40512439749949
817	 0.405043722525484
818	 0.404967978015925
819	 0.404803218974954
820	 0.404620379186503
821	 0.404479743271692
822	 0.404404496611413
823	 0.404240069138045
824	 0.404163882051291
825	 0.404171412963382
826	 0.40407391626033
827	 0.403984171202149
828	 0.403925909707909
829	 0.403839507324764
830	 0.403560389963314
831	 0.403479353620236
832	 0.403460125752879
833	 0.403332410333438
834	 0.403209284725802
835	 0.403183835680793
836	 0.403133160194926
837	 0.402925054154479
838	 0.402775388794131
839	 0.402693031701385
840	 0.402635930072845
841	 0.402543863491295
842	 0.402464800983496
843	 0.402382335028169
844	 0.402263153742526
845	 0.402080408871085
846	 0.402023860823441
847	 0.402026923046058
848	 0.401994840535833
849	 0.401865474184553
850	 0.401773041097354
851	 0.401651275076793
852	 0.401483900838267
853	 0.401499065706094
854	 0.401456752678484
855	 0.401338626866803
856	 0.401196531749906
857	 0.401020036131375
858	 0.40100454135965
859	 0.401053209149206
860	 0.40097216267721
861	 0.400924648285575
862	 0.400918552519007
863	 0.400917903770331
864	 0.400869006012456
865	 0.400806156511318
866	 0.400785299618904
867	 0.400739931981149
868	 0.400508168719956
869	 0.400467070164229
870	 0.400523363171399
871	 0.400565030809566
872	 0.400581437991612
873	 0.400401949128064
874	 0.400337045156774
875	 0.400511094496199
876	 0.400421221015474
877	 0.400397533368083
878	 0.400416764483607
879	 0.400400451741362
880	 0.400433820419982
881	 0.400321847861229
882	 0.400252838858321
883	 0.400424494774643
884	 0.400442514285949
885	 0.400447317841179
886	 0.400446038582644
887	 0.400397013891608
888	 0.400397473483784
889	 0.400490160041543
890	 0.40060729539319
891	 0.400627646500917
892	 0.400600453741779
893	 0.400594410703989
894	 0.400660044624521
895	 0.400796060154625
896	 0.400724659099974
897	 0.400779382209918
898	 0.401005474025599
899	 0.401060367041613
900	 0.401051448861381
901	 0.401066957082456
902	 0.401123535450467
903	 0.401142687820448
904	 0.401197608983261
905	 0.401246873253652
906	 0.401277292033126
907	 0.401356980402741
908	 0.401426738237169
909	 0.401528900986153
910	 0.401641088949
911	 0.401569178537841
912	 0.401654029195362
913	 0.401793238516213
914	 0.4018443877023
915	 0.40187555087058
916	 0.401897463924202
917	 0.402027807011612
918	 0.402296269027266
919	 0.402419353791056
920	 0.40256435081089
921	 0.402619915236175
922	 0.402539167676095
923	 0.402771642826374
924	 0.402816456682823
925	 0.402854469579412
926	 0.403115450060763
927	 0.403055121166687
928	 0.403129202369133
929	 0.403216322829112
930	 0.403139925132009
931	 0.403487348887213
932	 0.403518728752076
933	 0.403412143692696
934	 0.403575839096751
935	 0.403567696710858
936	 0.403402917594836
937	 0.403326357348656
938	 0.403496882413788
939	 0.40328898595341
940	 0.403172861128234
941	 0.403193060984885
942	 0.403219334780435
943	 0.403439027480295
944	 0.403079116777922
945	 0.402771767067043
946	 0.403300538195138
947	 0.403057929303279
948	 0.402903629875557
949	 0.40307928296432
950	 0.403389491072501
951	 0.403305228382121
952	 0.403555538621949
953	 0.404009801953638
954	 0.404221833445828
955	 0.404276676156417
956	 0.404435358093664
957	 0.404605465115223
958	 0.404623840715186
959	 0.404714315794079
960	 0.404729179237917
961	 0.40464493437236
962	 0.404517575548441
963	 0.404430361537628
964	 0.404697683042017
965	 0.405260010744922
966	 0.405798683593906
967	 0.405697363450419
968	 0.406003479384511
969	 0.406665055890467
970	 0.407374117152871
971	 0.408249499630865
972	 0.408872282416239
973	 0.409567638792053
974	 0.410529931681414
975	 0.411153140048141
976	 0.411796025908956
977	 0.412342797961618
978	 0.412713202621244
979	 0.413113640065439
980	 0.413474954360008
981	 0.413897091591878
982	 0.414364653054196
983	 0.414660669703797
984	 0.415038010120077
985	 0.41535578333949
986	 0.415565639600144
987	 0.415841687523161
988	 0.416559470007305
989	 0.416648157375371
990	 0.416365461146207
991	 0.417169267248622
992	 0.417426838770832
993	 0.417651380220744
994	 0.417955041287574
995	 0.418088306103949
996	 0.418712509771519
997	 0.419123062126253
998	 0.419346310434734
999	 0.419793293402066
1000	 0.420254837033737
1001	 0.428939693048948
1002	 0.429275826616144
1003	 0.42997720119779
1004	 0.430019836956582
1005	 0.429836217357708
1006	 0.429953009495661
1007	 0.429639486839352
1008	 0.42979512120564
1009	 0.430098857804542
1010	 0.430996342833397
1011	 0.431200723413463
1012	 0.431357518075352
1013	 0.431703199526229
1014	 0.431885924521694
1015	 0.432135853516004
1016	 0.432494745913995
1017	 0.432659995107408
1018	 0.432818685085485
1019	 0.433024740518125
1020	 0.433125612740797
1021	 0.433204345370507
1022	 0.433236739631992
1023	 0.433212787818415
1024	 0.433326632998106
1025	 0.433512113529964
1026	 0.433781329415687
1027	 0.434024600891359
1028	 0.434188488017152
1029	 0.434264737151255
1030	 0.43440197588212
1031	 0.434498696466824
1032	 0.434624994046451
1033	 0.434925909667973
1034	 0.43508662869203
1035	 0.435178853943113
1036	 0.435471634070263
1037	 0.435710165478926
1038	 0.435827776134362
1039	 0.435815498108174
1040	 0.435922949179977
1041	 0.436217801054224
1042	 0.436419557467545
1043	 0.436592282312755
1044	 0.436874734794654
1045	 0.43698228208446
1046	 0.436975249575656
1047	 0.437142119541591
1048	 0.437404369831074
1049	 0.437504674654391
1050	 0.437599710383458
1051	 0.437823701548672
1052	 0.43796830178679
1053	 0.438094138482653
1054	 0.438182354123711
1055	 0.438353940939925
1056	 0.438548891293059
1057	 0.438733372967758
1058	 0.438989884073363
1059	 0.439262616007933
1060	 0.439389762051987
1061	 0.439564779268174
1062	 0.439839137803988
1063	 0.440084448666601
1064	 0.44042265373789
1065	 0.440671908421769
1066	 0.440868962462502
1067	 0.441169073194331
1068	 0.441417825384419
1069	 0.441697439639253
1070	 0.44192707840337
1071	 0.442114697893381
1072	 0.442253074793621
1073	 0.442512252753542
1074	 0.442752063718057
1075	 0.443004099525699
1076	 0.44327236846474
1077	 0.443504948157343
1078	 0.443819377321109
1079	 0.444166575422889
1080	 0.444446826011609
1081	 0.44469104370763
1082	 0.44487774106563
1083	 0.445034372987233
1084	 0.445153697369834
1085	 0.445299743709832
1086	 0.445365683756549
1087	 0.445502835620073
1088	 0.445720701142408
1089	 0.445869159462571
1090	 0.445951327179654
1091	 0.446170491679591
1092	 0.44620960245207
1093	 0.446224064531372
1094	 0.44639521970352
1095	 0.446492478763465
1096	 0.446649613090309
1097	 0.446886644810743
1098	 0.447026653387754
1099	 0.447094103676643
1100	 0.447197587607556
1101	 0.447282218286613
1102	 0.447383081082928
1103	 0.44750244014716
1104	 0.447601306064489
1105	 0.447731687591288
1106	 0.447817031602435
1107	 0.447953523261589
1108	 0.44811846787547
1109	 0.448212368098761
1110	 0.448311004985877
1111	 0.448384516667966
1112	 0.448417000378238
1113	 0.448447524885563
1114	 0.448456137766704
1115	 0.448499858487892
1116	 0.448548238965995
1117	 0.448603585207442
1118	 0.448663016429692
1119	 0.448751725743517
1120	 0.44886135421492
1121	 0.448948318288792
1122	 0.449008014509551
1123	 0.449162562153872
1124	 0.44932335953286
1125	 0.44935172230546
1126	 0.449419086647629
1127	 0.449495707941111
1128	 0.44947066320456
1129	 0.44947319705871
1130	 0.449492558781986
1131	 0.449522732954903
1132	 0.449535315587856
1133	 0.449581894221507
1134	 0.449583058544812
1135	 0.449527296765864
1136	 0.449532519693699
1137	 0.449542315083215
1138	 0.449543901346984
1139	 0.449579295114527
1140	 0.449623645771616
1141	 0.449574210078533
1142	 0.449548588180069
1143	 0.449504553699415
1144	 0.449394366191923
1145	 0.449267929676066
1146	 0.449082112773339
1147	 0.448967457815711
1148	 0.44886661413546
1149	 0.448746760001088
1150	 0.448642447366264
1151	 0.448552158401193
1152	 0.448432347965827
1153	 0.448333131623025
1154	 0.448292531804536
1155	 0.448233464394986
1156	 0.448130353717229
1157	 0.448058082617098
1158	 0.448115745388265
1159	 0.448139734640216
1160	 0.448155136615223
1161	 0.448276120401937
1162	 0.448381466774821
1163	 0.448440234512153
1164	 0.448605504745602
1165	 0.448866419682449
1166	 0.449089841653742
1167	 0.449341841575062
1168	 0.449587142211174
1169	 0.44982745650884
1170	 0.450086331900291
1171	 0.45037596119564
1172	 0.450638500166243
1173	 0.450913043357947
1174	 0.451163153548803
1175	 0.451386762593902
1176	 0.451595881329249
1177	 0.451844996523277
1178	 0.452016694922376
1179	 0.452188902761619
1180	 0.452427173326326
1181	 0.452599567831312
1182	 0.452735585082359
1183	 0.452896969492611
1184	 0.453060907693499
1185	 0.45319085840418
1186	 0.453311017822604
1187	 0.453438400573117
1188	 0.45354954217441
1189	 0.453644866156828
1190	 0.453747698126929
1191	 0.453847119949513
1192	 0.453885740150809
1193	 0.453974693621504
1194	 0.454111371821091
1195	 0.454233253311139
1196	 0.454343801199138
1197	 0.454491756058491
1198	 0.454565149796711
1199	 0.454582558709012
1200	 0.454637108535326
1201	 0.454656643082406
1202	 0.454724680539011
1203	 0.45482819291146
1204	 0.454927824474546
1205	 0.455036687852871
1206	 0.455157997317819
1207	 0.455346518143044
1208	 0.455428230475781
1209	 0.455451423664006
1210	 0.455496683709139
1211	 0.455478163355211
1212	 0.455484602925055
1213	 0.455538978305668
1214	 0.455571338829186
1215	 0.455575817849679
1216	 0.455530992449309
1217	 0.455477764404304
1218	 0.455378201254429
1219	 0.455338349718161
1220	 0.455333171303488
1221	 0.455248022388231
1222	 0.455183907472314
1223	 0.455046076913541
1224	 0.454810871980733
1225	 0.454594830495292
1226	 0.454370026262941
1227	 0.454125798193355
1228	 0.453822779955703
1229	 0.453563687667986
1230	 0.453272997702056
1231	 0.453058162467492
1232	 0.452907893102568
1233	 0.452760963019241
1234	 0.452639276169679
1235	 0.452556220667387
1236	 0.452508845713187
1237	 0.452455578035491
1238	 0.452501124362941
1239	 0.4526507029424
1240	 0.452745944171582
1241	 0.452875348672659
1242	 0.452993660181603
1243	 0.453062391593786
1244	 0.453218355108624
1245	 0.453455804826082
1246	 0.453638112687642
1247	 0.453828497926503
1248	 0.454028763609305
1249	 0.454224283224616
1250	 0.454397535615844
1251	 0.454584440266966
1252	 0.454761436891358
1253	 0.45490152514681
1254	 0.455043587313135
1255	 0.455186264876708
1256	 0.455339178239637
1257	 0.455496770492773
1258	 0.455642118768831
1259	 0.455802660975312
1260	 0.456008270256829
1261	 0.456141321115853
1262	 0.45624238245325
1263	 0.456341680400756
1264	 0.456435244612809
1265	 0.456468483502608
1266	 0.456473774251488
1267	 0.456459952661337
1268	 0.456396160854143
1269	 0.456313849471427
1270	 0.456210683253524
1271	 0.456104223997519
1272	 0.455999140485153
1273	 0.455826047726507
1274	 0.455629320192302
1275	 0.455404827699234
1276	 0.455119992969752
1277	 0.454802762776532
1278	 0.454458127553106
1279	 0.454137487163631
1280	 0.453661589262229
1281	 0.453071630053714
1282	 0.452511714539735
1283	 0.451881359072488
1284	 0.451241530688499
1285	 0.450617540013298
1286	 0.449923247068844
1287	 0.449100140858415
1288	 0.448389599265555
1289	 0.447690360905274
1290	 0.447012224818443
1291	 0.446381626281073
1292	 0.445762038730915
1293	 0.445165172482895
1294	 0.444553403942261
1295	 0.443955571052777
1296	 0.443362778040588
1297	 0.442772800520628
1298	 0.44216227542411
1299	 0.441573931180956
1300	 0.440961363106018
1301	 0.440305248953014
1302	 0.439582506871482
1303	 0.438933491981362
1304	 0.438266627535664
1305	 0.43767370428965
1306	 0.437119845662151
1307	 0.436622742559917
1308	 0.436156865777544
1309	 0.435777280367626
1310	 0.43552191480814
1311	 0.435198167357461
1312	 0.434930884330582
1313	 0.434612515697603
1314	 0.434276875779963
1315	 0.433891997875222
1316	 0.433477212270852
1317	 0.433050418610288
1318	 0.432594066544337
1319	 0.432101525968518
1320	 0.431597994066412
1321	 0.431069633461166
1322	 0.43045802626049
1323	 0.429888247779672
1324	 0.429318295220608
1325	 0.428779876648409
1326	 0.428273837732305
1327	 0.427741572287628
1328	 0.427233271001631
1329	 0.42674413617041
1330	 0.426245140043306
1331	 0.425756419394959
1332	 0.425253203517186
1333	 0.424752253524682
1334	 0.424222323134867
1335	 0.42368521564186
1336	 0.423123100263656
1337	 0.422541642538863
1338	 0.421942098057302
1339	 0.421373974054739
1340	 0.420687594065483
1341	 0.420024830597405
1342	 0.419160661773713
1343	 0.418245608376343
1344	 0.417079767982181
1345	 0.415721004598959
1346	 0.414213456463507
1347	 0.412496907665864
1348	 0.410655688061519
1349	 0.408611213000181
1350	 0.406530655409406
1351	 0.404358155632425
1352	 0.402190231410268
1353	 0.400060889936389
1354	 0.397995033938088
1355	 0.396106045951234
1356	 0.394280957510104
1357	 0.392623991928915
1358	 0.3911672363436
1359	 0.389729148586571
1360	 0.388422256053718
1361	 0.387076407547125
1362	 0.385848065793437
1363	 0.384497621763578
1364	 0.38316825608331
1365	 0.381689794506894
1366	 0.380199911670229
1367	 0.378496161060914
1368	 0.376770889103684
1369	 0.37469894454558
1370	 0.372446913140345
1371	 0.369924132127391
1372	 0.367211875941935
1373	 0.364122514416204
1374	 0.360735164253331
1375	 0.357093643200918
1376	 0.353072102530694
1377	 0.348855996385672
1378	 0.34440572981128
1379	 0.339776299232368
1380	 0.335025462308162
1381	 0.330172658917623
1382	 0.32533582607467
1383	 0.320638074139837
1384	 0.316246051497647
1385	 0.311911086040555
1386	 0.308115159936222
1387	 0.304585940250406
1388	 0.301606638297934
1389	 0.298991365349519
1390	 0.296883835205399
1391	 0.295248821228543
1392	 0.294024746829933
1393	 0.293287503216443
1394	 0.292802007391781
1395	 0.292849578277594
1396	 0.292863966920305
1397	 0.293226506762979
1398	 0.293433828841968
1399	 0.293833000998047
1400	 0.293916858630615
1401	 0.294074608352763
1402	 0.293727523342334
1403	 0.293228364938672
1404	 0.292151599755693
1405	 0.290709463947848
1406	 0.288709477866284
1407	 0.286059170221762
1408	 0.283115932180946
1409	 0.279712066432729
1410	 0.276419304613414
1411	 0.273445609448626
1412	 0.271160884625001
1413	 0.269968897602887
1414	 0.269897071322885
1415	 0.271461982973971
1416	 0.274125147914997
1417	 0.27758254947311
1418	 0.282608975180834
1419	 0.287181334578406
1420	 0.292654089303621
1421	 0.297208222400678
1422	 0.301828758501729
1423	 0.305717508600256
1424	 0.309100036630626
1425	 0.312115047117509
1426	 0.314580733995147
1427	 0.316945724680728
1428	 0.31889304124461
1429	 0.320815000379837
1430	 0.322558295464852
1431	 0.32421194870053
1432	 0.325685003360192
1433	 0.327128228758525
1434	 0.328484500557807
1435	 0.329775430792429
1436	 0.330960941588995
1437	 0.332148421988919
1438	 0.333291358873493
1439	 0.334382241398967
1440	 0.335434791030548
1441	 0.336462387653299
1442	 0.337420335557927
1443	 0.338379457075643
1444	 0.339334152913843
1445	 0.34028128235645
1446	 0.341161244109088
1447	 0.342003591068593
1448	 0.342757335942793
1449	 0.343437562378937
1450	 0.34412648982956
1451	 0.344777071036566
1452	 0.345423283997001
1453	 0.346083552098138
1454	 0.346661592114387
1455	 0.347194439952595
1456	 0.347691899140726
1457	 0.348142063172549
1458	 0.348559557072857
1459	 0.348927024776262
1460	 0.349297165117851
1461	 0.349619257625397
1462	 0.349976715449447
1463	 0.350319886772951
1464	 0.350724420011892
1465	 0.351152378493204
1466	 0.35161466448093
1467	 0.352102071221249
1468	 0.352655154327643
1469	 0.353247576210081
1470	 0.353885098902155
1471	 0.354583597162252
1472	 0.35532586204983
1473	 0.356138274240413
1474	 0.3569191143633
1475	 0.357722401404646
1476	 0.358550696060714
1477	 0.359380281525515
1478	 0.360214405516417
1479	 0.361106203026152
1480	 0.361962544512805
1481	 0.362787998311115
1482	 0.363615488062755
1483	 0.364444919184444
1484	 0.365259943538503
1485	 0.366077508561023
1486	 0.366863332415416
1487	 0.367605468013048
1488	 0.368378046951763
1489	 0.369158831740812
1490	 0.369907008789427
1491	 0.370662688810601
1492	 0.371407561766193
1493	 0.372086113204945
1494	 0.37276844242224
1495	 0.373451477518641
1496	 0.374141394013621
1497	 0.374846802568373
1498	 0.375510326214529
1499	 0.376150535105406
1500	 0.376781643362622
1501	 0.377398065946928
1502	 0.378025855956776
1503	 0.378659130795411
1504	 0.379282665105672
1505	 0.379888971217776
1506	 0.380488080788322
1507	 0.381065883431885
1508	 0.381618918418911
1509	 0.382187887237237
1510	 0.382744833946447
1511	 0.383304882262535
1512	 0.383889982164767
1513	 0.384436100566997
1514	 0.384957066761554
1515	 0.38547825953708
1516	 0.38596908629733
1517	 0.386492570575627
1518	 0.38704401183393
1519	 0.387555146349295
1520	 0.388066642200175
1521	 0.388558373287692
1522	 0.389012715918004
1523	 0.389474567536184
1524	 0.389944829625998
1525	 0.390396161749773
1526	 0.390828586512553
1527	 0.391253755827156
1528	 0.391668999096544
1529	 0.392075898922432
1530	 0.392471521970453
1531	 0.392867681443651
1532	 0.393250995050661
1533	 0.393645147850997
1534	 0.394052551665315
1535	 0.394429136801568
1536	 0.394805536167856
1537	 0.395163947053139
1538	 0.395492902979748
1539	 0.395821402110734
1540	 0.396123205417655
1541	 0.396456620198694
1542	 0.396796977372296
1543	 0.397136505056404
1544	 0.397528351704322
1545	 0.397859875128442
1546	 0.398147463773325
1547	 0.398443256210355
1548	 0.398710119754875
1549	 0.39898264389197
1550	 0.399264124695725
1551	 0.399532989107004
1552	 0.399795170672233
1553	 0.40004959164069
1554	 0.400290670607262
1555	 0.400536671243589
1556	 0.400772625328731
1557	 0.401012517010302
1558	 0.401254403417885
1559	 0.401501688828689
1560	 0.401767597314695
1561	 0.402008577873334
1562	 0.402233293563304
1563	 0.402465839957027
1564	 0.402698293557798
1565	 0.402912382098781
1566	 0.403118236641332
1567	 0.40333113603144
1568	 0.40351216438606
1569	 0.403715035272385
1570	 0.403955146674351
1571	 0.404176901180582
1572	 0.40439450145214
1573	 0.404615192695627
1574	 0.404847646555186
1575	 0.40503633082085
1576	 0.405258843759317
1577	 0.405478191022489
1578	 0.405680070970772
1579	 0.405886199172935
1580	 0.406057573695719
1581	 0.406218468582568
1582	 0.406359070256175
1583	 0.406499706241106
1584	 0.406651985884749
1585	 0.406858441825787
1586	 0.407119646700837
1587	 0.407345847333064
1588	 0.407542103952321
1589	 0.407680674175791
1590	 0.407771442887995
1591	 0.407899550932853
1592	 0.408072651664534
1593	 0.40826609445603
1594	 0.408501499225865
1595	 0.408730987611636
1596	 0.408890415818967
1597	 0.409052648587738
1598	 0.409203831918103
1599	 0.409328129878665
1600	 0.40951439053468
1601	 0.409686647029881
1602	 0.409789732469659
1603	 0.409905388149778
1604	 0.410025303009378
1605	 0.410149830852989
1606	 0.410298854367837
1607	 0.410448368896989
1608	 0.410595489682119
1609	 0.410726802056431
1610	 0.410860373214455
1611	 0.410998882346352
1612	 0.411110090152202
1613	 0.411226445331083
1614	 0.411347131744446
1615	 0.411453764401303
1616	 0.411548226731358
1617	 0.411617593225102
1618	 0.411709960990137
1619	 0.41179364391232
1620	 0.411890919928935
1621	 0.41200815802071
1622	 0.412113671577413
1623	 0.412213924521651
1624	 0.412312532718455
1625	 0.412409789836203
1626	 0.41251876347068
1627	 0.412641226122218
1628	 0.412713814037214
1629	 0.412755448270183
1630	 0.412800671179521
1631	 0.41287210950357
1632	 0.412966408757376
1633	 0.413083863786807
1634	 0.413164510657859
1635	 0.413212613349848
1636	 0.413240953602105
1637	 0.413269257995685
1638	 0.413324929290812
1639	 0.413391825950558
1640	 0.413490438806224
1641	 0.413565648759747
1642	 0.413601127431748
1643	 0.413650546904043
1644	 0.413726557971586
1645	 0.413765781046949
1646	 0.413776289301484
1647	 0.413796963807211
1648	 0.413782126315237
1649	 0.413791302756247
1650	 0.413826394272047
1651	 0.413863703203307
1652	 0.413924954988651
1653	 0.413963401398254
1654	 0.414002155800524
1655	 0.414024837473065
1656	 0.414027382832981
1657	 0.41401880667564
1658	 0.413990044113665
1659	 0.413966146959459
1660	 0.413931219480109
1661	 0.413896762724599
1662	 0.413883263730021
1663	 0.413839236275458
1664	 0.413758117913035
1665	 0.41369961217875
1666	 0.413620655457881
1667	 0.413570349496521
1668	 0.413570537960931
1669	 0.413539316488095
1670	 0.413514745526337
1671	 0.413464045024304
1672	 0.41337239838326
1673	 0.413298087633114
1674	 0.413214723847733
1675	 0.413142142814451
1676	 0.413089196501875
1677	 0.413022087089967
1678	 0.412962305520517
1679	 0.412878299447545
1680	 0.412771078421937
1681	 0.412668732061769
1682	 0.412557144512741
1683	 0.41243915650533
1684	 0.412296078095341
1685	 0.412197329641002
1686	 0.412126619617465
1687	 0.4120324307954
1688	 0.411977299184334
1689	 0.411870886282852
1690	 0.411696645473153
1691	 0.411568318123751
1692	 0.411453519001756
1693	 0.411325483313126
1694	 0.411215486132512
1695	 0.411076409461689
1696	 0.410899749077222
1697	 0.410752196148127
1698	 0.41061675183673
1699	 0.410471518372335
1700	 0.410344507944973
1701	 0.410183915648539
1702	 0.409987821553441
1703	 0.409809918135857
1704	 0.409628810411712
1705	 0.409434814559269
1706	 0.409252486653079
1707	 0.409051485403766
1708	 0.408820903776133
1709	 0.408610735883391
1710	 0.408415383705711
1711	 0.408177778501021
1712	 0.407923212104045
1713	 0.407672662613712
1714	 0.407414219068015
1715	 0.40711486795876
1716	 0.406816730817083
1717	 0.406473213039511
1718	 0.406040953660244
1719	 0.405735183335531
1720	 0.405415667227565
1721	 0.405130789160038
1722	 0.404839240536476
1723	 0.404518043940806
1724	 0.404213375913674
1725	 0.403862020215146
1726	 0.403549455674884
1727	 0.403235966393411
1728	 0.402835882718308
1729	 0.402459007540184
1730	 0.402074751729278
1731	 0.401652875979347
1732	 0.401257239601436
1733	 0.40082710740401
1734	 0.40042343194088
1735	 0.400083746436277
1736	 0.39969727561052
1737	 0.399342577572313
1738	 0.398941277336719
1739	 0.398443345372131
1740	 0.39800250622657
1741	 0.397592587736877
1742	 0.397166829243669
1743	 0.396754321221761
1744	 0.396335972003006
1745	 0.39590751848133
1746	 0.395477516122243
1747	 0.395063194623657
1748	 0.394619968507776
1749	 0.394143086653431
1750	 0.393680768800767
1751	 0.39320018498131
1752	 0.392750949522772
1753	 0.392341549168442
1754	 0.391872645846254
1755	 0.391397008365958
1756	 0.390902955723428
1757	 0.390353860196457
1758	 0.389846535903266
1759	 0.389359560784289
1760	 0.388866629034614
1761	 0.388381203656153
1762	 0.387923221419589
1763	 0.387441904758767
1764	 0.386908342377325
1765	 0.386326440791927
1766	 0.385746649248198
1767	 0.385192447748073
1768	 0.384651073954748
1769	 0.384154391158932
1770	 0.383686845820737
1771	 0.383162515369273
1772	 0.38263600795296
1773	 0.382144469675325
1774	 0.381602148761468
1775	 0.381026118303861
1776	 0.380465885573368
1777	 0.37994071393494
1778	 0.37945041594348
1779	 0.378901873689534
1780	 0.378373141620002
1781	 0.377876908742108
1782	 0.377375551855963
1783	 0.376930594245347
1784	 0.376554601535566
1785	 0.376146890169655
1786	 0.375722539445304
1787	 0.375318293904415
1788	 0.374920157557558
1789	 0.374539205647277
1790	 0.374196799229389
1791	 0.373848479735238
1792	 0.373489055419259
1793	 0.373173007482539
1794	 0.372883363630117
1795	 0.372681988892115
1796	 0.372475618907572
1797	 0.372193666755579
1798	 0.371902331942462
1799	 0.371704602982429
1800	 0.371490945126071
1801	 0.371286007128331
1802	 0.371072508363528
1803	 0.370747884764234
1804	 0.370466826895023
1805	 0.370153415400138
1806	 0.370052070593118
1807	 0.370130844929104
1808	 0.369955474868315
1809	 0.369823534800476
1810	 0.369614488921263
1811	 0.369160149955144
1812	 0.368904511851971
1813	 0.368734636692106
1814	 0.368535275556907
1815	 0.368392471619386
1816	 0.368185773853529
1817	 0.367941748552808
1818	 0.367710073924336
1819	 0.367488913077087
1820	 0.367389822227782
1821	 0.367315595748428
1822	 0.367296432283436
1823	 0.367337728395817
1824	 0.367329891830098
1825	 0.367259601006403
1826	 0.367163821591269
1827	 0.367017071634559
1828	 0.366865687387203
1829	 0.366789757688585
1830	 0.36666332133881
1831	 0.370338862968651
1832	 0.370274912950593
1833	 0.370119033163367
1834	 0.369948804293814
1835	 0.369786263585004
1836	 0.369486684164988
1837	 0.369055518585253
1838	 0.368681611934565
1839	 0.368228608667724
1840	 0.367741388971697
1841	 0.367458092487805
1842	 0.367125027351095
1843	 0.366774378095064
1844	 0.366406227283196
1845	 0.366131431050307
1846	 0.365791444212108
1847	 0.36562438507411
1848	 0.365639132543477
1849	 0.365615583668887
1850	 0.365543623370866
1851	 0.365497585165944
1852	 0.365365276898901
1853	 0.365076079502275
1854	 0.36472290057171
1855	 0.36430664452244
1856	 0.363840277934882
1857	 0.363367778212102
1858	 0.36267653535733
1859	 0.361939120765435
1860	 0.360966029472769
1861	 0.359753631722729
1862	 0.358375574702514
1863	 0.356932420684545
1864	 0.35541107102644
1865	 0.353726723826805
1866	 0.351954590341683
1867	 0.349954906348709
1868	 0.34777970497153
1869	 0.345393694789126
1870	 0.342849042264378
1871	 0.340187764743352
1872	 0.337345438052665
1873	 0.334373612409777
1874	 0.331294205984402
1875	 0.328051397967174
1876	 0.324789253625839
1877	 0.321479744017274
1878	 0.318094721920501
1879	 0.314635684126166
1880	 0.311130440422925
1881	 0.307526453208231
1882	 0.303891057623769
1883	 0.300115389087539
1884	 0.296213209016665
1885	 0.292283011844561
1886	 0.288105835558137
1887	 0.283795913605935
1888	 0.279451609011883
1889	 0.27501630012112
1890	 0.270452188554586
1891	 0.265857754141439
1892	 0.261140045743699
1893	 0.256307084397163
1894	 0.251447328686052
1895	 0.246603184657007
1896	 0.241828555831509
1897	 0.237231135021311
1898	 0.232654489482498
1899	 0.228110359808185
1900	 0.223816042491749
1901	 0.21969393892784
1902	 0.215700587289009
1903	 0.211984581738887
1904	 0.208593784088797
1905	 0.205397982998836
1906	 0.202501278360331
1907	 0.19988505065061
1908	 0.197557380308393
1909	 0.195535856675469
1910	 0.193750008201874
1911	 0.192284367157638
1912	 0.191127051527804
1913	 0.190217965721786
1914	 0.189595834521965
1915	 0.189321591872296
1916	 0.189311090334038
1917	 0.189515375125119
1918	 0.189929399395774
1919	 0.190522315430474
1920	 0.191226040898474
1921	 0.19200467910167
1922	 0.192853638269574
1923	 0.193690393945089
1924	 0.194555746181599
1925	 0.19538091944964
1926	 0.196211800809907
1927	 0.197089187465174
1928	 0.198007616487206
1929	 0.198859029911929
1930	 0.199658920296172
1931	 0.200427136229921
1932	 0.201130269447224
1933	 0.201779481818077
1934	 0.202448106067414
1935	 0.203131015367506
1936	 0.203815176749273
1937	 0.204465884238793
1938	 0.205137360460315
1939	 0.205728118308143
1940	 0.206229494827977
1941	 0.206665684480928
1942	 0.20716723597152
1943	 0.207822559687996
1944	 0.208422447888155
1945	 0.209012809589025
1946	 0.209649399494818
1947	 0.210201369150462
1948	 0.210643022003876
1949	 0.211219807971588
1950	 0.211791794055002
1951	 0.212381647285566
1952	 0.213017871598836
1953	 0.213616264642164
1954	 0.214211731030787
1955	 0.214782916529155
1956	 0.215388717247767
1957	 0.215997056802853
1958	 0.216569595291163
1959	 0.217098099694503
1960	 0.217697094565471
1961	 0.218297262266094
1962	 0.218894069460585
1963	 0.219611183144702
1964	 0.220303561255868
1965	 0.220944602243056
1966	 0.221624034991181
1967	 0.222171359277189
1968	 0.222777870997547
1969	 0.223489978354594
1970	 0.224277651457374
1971	 0.225046619940482
1972	 0.225894954921317
1973	 0.226721497502146
1974	 0.227562138052012
1975	 0.228313627675142
1976	 0.229143455864132
1977	 0.230064604839031
1978	 0.230783765180074
1979	 0.231545381791035
1980	 0.232320888645929
1981	 0.233009815352229
1982	 0.233805620075556
1983	 0.234734734694634
1984	 0.235536746145377
1985	 0.23634214295789
1986	 0.237124696610624
1987	 0.237851995449249
1988	 0.23851147843085
1989	 0.239285053029935
1990	 0.240120025394991
1991	 0.240978711523748
1992	 0.241925991947541
1993	 0.242830094646707
1994	 0.243642222171477
1995	 0.24444270706159
1996	 0.245144676922615
1997	 0.245944891857683
1998	 0.246761861518023
1999	 0.247580574246078
2000	 0.248462637129891
2001	 0.249305743695886
2002	 0.250027114576273
2003	 0.250906137820515
2004	 0.251740040311591
2005	 0.25253027980454
2006	 0.25343986378559
2007	 0.254309181248232
2008	 0.255178914767652
2009	 0.25606894066799
2010	 0.256930342190561
2011	 0.257813234171211
2012	 0.25859729585533
2013	 0.259328164588449
2014	 0.260052132228851
2015	 0.260708387651376
2016	 0.261339264656852
2017	 0.26205197962776
2018	 0.262694661846515
2019	 0.263325490892649
2020	 0.263989792189178
2021	 0.264659283743279
2022	 0.265335876788962
2023	 0.265981694925534
2024	 0.266655424263876
2025	 0.267287946038863
2026	 0.267862933191198
2027	 0.268454382625187
2028	 0.269079096052659
2029	 0.269609323508793
2030	 0.270153132107182
2031	 0.270673524613826
2032	 0.271167716777342
2033	 0.271676565423231
2034	 0.272193814772971
2035	 0.272762877124337
2036	 0.273215606724341
2037	 0.273614727763022
2038	 0.274014537735666
2039	 0.274291979336578
2040	 0.274658874382331
2041	 0.275118186048243
2042	 0.275502457328704
2043	 0.275859091676043
2044	 0.276232922268233
2045	 0.276587888188653
2046	 0.276945928885957
2047	 0.277347705086672
2048	 0.277741936742843
2049	 0.278112216994774
2050	 0.278455120381157
2051	 0.278764119175163
2052	 0.279068064345974
2053	 0.279313464874841
2054	 0.279461663099975
2055	 0.279685386521256
2056	 0.279882065447318
2057	 0.280115931519247
2058	 0.280405716244081
2059	 0.280699315538697
2060	 0.280932896209697
2061	 0.281179805881896
2062	 0.281411691832343
2063	 0.281499864198538
2064	 0.281605459997732
2065	 0.281762283948668
2066	 0.281857021322832
2067	 0.281924760393838
2068	 0.281992555461441
2069	 0.282026303843582
2070	 0.282060727841623
2071	 0.282063514972775
2072	 0.28210166341016
2073	 0.282169797083858
2074	 0.282202665716976
2075	 0.282196410903363
2076	 0.282290180067401
2077	 0.282335494415179
2078	 0.28235469956557
2079	 0.282394575770847
2080	 0.282402130235084
2081	 0.282435265278092
2082	 0.282492841839549
2083	 0.282470579468388
2084	 0.282436162241972
2085	 0.282376053006429
2086	 0.282217237664587
2087	 0.282124636587747
2088	 0.282044047982841
2089	 0.281995000965966
2090	 0.281932725552115
2091	 0.281914751184723
2092	 0.281945725076319
2093	 0.282025560500226
2094	 0.282056198334357
2095	 0.282161748281204
2096	 0.282169689380402
2097	 0.282152817422793
2098	 0.282053688000995
2099	 0.281883923619175
2100	 0.281681333600022
2101	 0.28137248222508
2102	 0.281117268421906
2103	 0.280899624020093
2104	 0.280580437083028
2105	 0.280264795640952
2106	 0.279850658509163
2107	 0.279284719113699
2108	 0.278759887666421
2109	 0.278158533332808
2110	 0.277619617961648
2111	 0.277134843330436
2112	 0.276697584255104
2113	 0.276349023402008
2114	 0.276031846891766
2115	 0.27583641413974
2116	 0.275764409855798
2117	 0.275643874098149
2118	 0.275713250229448
2119	 0.275524031231395
2120	 0.275158394442519
2121	 0.274869955381873
2122	 0.274460684655848
2123	 0.274157383557906
2124	 0.273962370579232
2125	 0.273693743669213
2126	 0.273498846094888
2127	 0.273146821454898
2128	 0.272666359755036
2129	 0.272194509638998
2130	 0.271501129276198
2131	 0.270810035182092
2132	 0.27005355963081
2133	 0.269298385904761
2134	 0.268316733048849
2135	 0.267229520221652
2136	 0.265996970934922
2137	 0.2645577865676
2138	 0.263063928990429
2139	 0.261500304455243
2140	 0.259787762208472
2141	 0.257940123682843
2142	 0.255996231000688
2143	 0.253979193186654
2144	 0.251782934374206
2145	 0.249320161842126
2146	 0.246921822245869
2147	 0.244446865741115
2148	 0.241862415020891
2149	 0.239348851701155
2150	 0.236958330282569
2151	 0.23445017713299
2152	 0.231946977147586
2153	 0.229698504527363
2154	 0.227517342806843
2155	 0.225563223674711
2156	 0.223862351519496
2157	 0.222262246692145
2158	 0.22078659847003
2159	 0.21948025139547
2160	 0.21831665906468
2161	 0.217334661689336
2162	 0.216582652338043
2163	 0.21588735581523
2164	 0.215345531137812
2165	 0.214916199572744
2166	 0.214586980941343
2167	 0.214361123175614
2168	 0.214359270803813
2169	 0.214306515190452
2170	 0.214236499572052
2171	 0.214234965594449
2172	 0.214284711732218
2173	 0.214339767915657
2174	 0.214420175955679
2175	 0.21466180155972
2176	 0.214650336272647
2177	 0.214571458795336
2178	 0.21438491766267
2179	 0.21407063597705
2180	 0.213663440291383
2181	 0.213171602945522
2182	 0.21256174395085
2183	 0.211824429286273
2184	 0.211020835022732
2185	 0.210149884685895
2186	 0.209144528147199
2187	 0.207991693637069
2188	 0.206772096170612
2189	 0.205398705504596
2190	 0.204002899935961
2191	 0.202664189286784
2192	 0.201298784560999
2193	 0.199844238741221
2194	 0.198342119447888
2195	 0.196618003178364
2196	 0.194753264070881
2197	 0.192865514093952
2198	 0.190936965978761
2199	 0.188804452718368
2200	 0.186614609280937
2201	 0.184147241306315
2202	 0.18127485584675
2203	 0.178658612921104
2204	 0.175627542897447
2205	 0.173408284515573
2206	 0.171222794915071
2207	 0.170013556874274
2208	 0.169419280828903
2209	 0.16957179563909
2210	 0.170532125951769
2211	 0.172123901444815
2212	 0.174603063807802
2213	 0.177417872136113
2214	 0.181151565775647
2215	 0.184809159557414
2216	 0.188924611248907
2217	 0.192955024414901
2218	 0.196902534005367
2219	 0.200716868913904
2220	 0.204197496679945
2221	 0.207414794634389
2222	 0.210403944007566
2223	 0.212992827707622
2224	 0.215209521756164
2225	 0.217065685303266
2226	 0.218648458910455
2227	 0.219748844309701
2228	 0.22081038846817
2229	 0.221677107508337
2230	 0.222324706236244
2231	 0.22271455302299
2232	 0.223018380272589
2233	 0.223070245236298
2234	 0.223105739275609
2235	 0.223007714640022
2236	 0.222894817076613
2237	 0.2225721885145
2238	 0.222466825834539
2239	 0.222345509951859
2240	 0.222425921696
2241	 0.222709573000674
2242	 0.223042128279157
2243	 0.223607313166848
2244	 0.224057112739385
2245	 0.224496365055798
2246	 0.224985148101533
2247	 0.225477020214636
2248	 0.225775674045442
2249	 0.226151578540109
2250	 0.226563961197378
2251	 0.226746990179558
2252	 0.226982975949241
2253	 0.227162872862238
2254	 0.227254154582388
2255	 0.22737078842399
2256	 0.227299759157859
2257	 0.227313869588445
2258	 0.22729750250487
2259	 0.227221872285538
2260	 0.227162635100365
2261	 0.227074539094203
2262	 0.226878949519239
2263	 0.22673995119804
2264	 0.22663939827942
2265	 0.226538003059706
2266	 0.226461530285319
2267	 0.226273900134482
2268	 0.226107087261784
2269	 0.225803365294452
2270	 0.225339313260969
2271	 0.224902539945492
2272	 0.224396761728482
2273	 0.223911853631733
2274	 0.223353277067725
2275	 0.222862647330927
2276	 0.222477759993837
2277	 0.221991754396226
2278	 0.221515982907597
2279	 0.220999670470469
2280	 0.220378589390975
2281	 0.219768431620526
2282	 0.219123882035483
2283	 0.218503221770664
2284	 0.217944890400539
2285	 0.21735721685635
2286	 0.216951136767794
2287	 0.216442087233379
2288	 0.215817148820555
2289	 0.215145757355662
2290	 0.21433289929972
2291	 0.213792408332162
2292	 0.213322028698121
2293	 0.212819996732732
2294	 0.21231081703029
2295	 0.211681116174811
2296	 0.210954797351555
2297	 0.210233971457948
2298	 0.209645447528263
2299	 0.209019792551551
2300	 0.208262238256314
2301	 0.207445089736788
2302	 0.206622555964393
2303	 0.205615130705385
2304	 0.204730189434931
2305	 0.204032144500144
2306	 0.203079355098043
2307	 0.201918144837266
2308	 0.200998149433005
2309	 0.199986631565731
2310	 0.199220514536387
2311	 0.198704221402203
2312	 0.198148189410755
2313	 0.197645114363775
2314	 0.197209274773457
2315	 0.1968762572683
2316	 0.196554853265825
2317	 0.1962604700304
2318	 0.196105218351655
2319	 0.196063715901013
2320	 0.195984006578587
2321	 0.195976067279948
2322	 0.195961750159109
2323	 0.195947924889577
2324	 0.195907802151081
2325	 0.195923499536304
2326	 0.195938862244738
2327	 0.195925622904069
2328	 0.195853054667144
2329	 0.195785686039688
2330	 0.195669930217201
2331	 0.195442340441717
2332	 0.195270868558225
2333	 0.195157863140856
2334	 0.194950761164004
2335	 0.194676457302452
2336	 0.194451413316628
2337	 0.19423011693309
2338	 0.19395820881675
2339	 0.193706216750086
2340	 0.193364164519761
2341	 0.192890339450877
2342	 0.192491464251617
2343	 0.19221657896342
2344	 0.191601734845682
2345	 0.190829239361844
2346	 0.190068128440136
2347	 0.189015810612935
2348	 0.188137414459586
2349	 0.187456206549631
2350	 0.186748573027739
2351	 0.186293681414089
2352	 0.185976628193745
2353	 0.185571368538134
2354	 0.185226513264108
2355	 0.184817168971315
2356	 0.184516444728728
2357	 0.184296683838223
2358	 0.18398285649222
2359	 0.183998449930016
2360	 0.183719039480642
2361	 0.183532879289508
2362	 0.183637342334026
2363	 0.183330749528848
2364	 0.183174894324229
2365	 0.182701161593438
2366	 0.182065657041799
2367	 0.181775106817587
2368	 0.18128440182155
2369	 0.180940331707467
2370	 0.180696628207285
2371	 0.180032341946878
2372	 0.179126519665587
2373	 0.178191707085898
2374	 0.17734248323706
2375	 0.176572455908315
2376	 0.175827481736379
2377	 0.175157155776586
2378	 0.174503669639601
2379	 0.173944414035664
2380	 0.173443553255297
2381	 0.172948164734477
2382	 0.172428557488563
2383	 0.171932162659676
2384	 0.171779385294459
2385	 0.171585977249723
2386	 0.171337664849048
2387	 0.171266941041349
2388	 0.171048112929884
2389	 0.170963245358967
2390	 0.171103511432292
2391	 0.170947734953697
2392	 0.170545651073091
2393	 0.170381716866418
2394	 0.170247645423833
2395	 0.170380471735012
2396	 0.170781973611221
2397	 0.171053530609137
2398	 0.171387719317849
2399	 0.171367222308902
2400	 0.171131114553015
2401	 0.170675432684491
2402	 0.170049999649309
2403	 0.169873348988392
2404	 0.169943558917604
2405	 0.17025465285294
2406	 0.170738426006597
2407	 0.170779719042375
2408	 0.169890696938268
2409	 0.168774498595502
2410	 0.167566508439088
2411	 0.166468537415385
2412	 0.166500359655174
2413	 0.166973494800629
2414	 0.167234829522981
2415	 0.166786079073561
2416	 0.166135297766677
2417	 0.165322536221041
2418	 0.164000892200416
2419	 0.163726358364101
2420	 0.163455329175703
2421	 0.162735163806651
2422	 0.162466185283084
2423	 0.161103426582595
2424	 0.160516059866724
2425	 0.160171541171642
2426	 0.159701201332703
2427	 0.159969063456413
2428	 0.159518042428415
2429	 0.158205376142246
2430	 0.157597496421433
2431	 0.15715982673225
2432	 0.15649781626707
2433	 0.156447378519624
2434	 0.155649846288443
2435	 0.153866924378372
2436	 0.153020066457875
2437	 0.152229265723423
2438	 0.151880920266277
2439	 0.152135057212627
2440	 0.152042969693476
2441	 0.15171674859972
2442	 0.151574419038318
2443	 0.150824583405303
2444	 0.150285687579138
2445	 0.150216903760744
2446	 0.149540509103595
2447	 0.148821917155148
2448	 0.148640866662918
2449	 0.148305102850548
2450	 0.147950417660215
2451	 0.148134486037396
2452	 0.14802652710095
2453	 0.147046223266286
2454	 0.146524188856764
2455	 0.146411950093364
2456	 0.145913938120559
2457	 0.146007757918377
2458	 0.145477405745508
2459	 0.144379067425266
2460	 0.143779838370236
2461	 0.142759953810622
2462	 0.142395305295201
2463	 0.142477264291902
2464	 0.142300631284682
2465	 0.142391412172389
2466	 0.14226396683294
2467	 0.141498865694048
2468	 0.140368012841157
2469	 0.139329173247727
2470	 0.138424669566287
2471	 0.137985072373319
2472	 0.138021123253589
2473	 0.138181965837605
2474	 0.13837315919839
2475	 0.138213056976526
2476	 0.138287987181576
2477	 0.138506935065617
2478	 0.138180876640147
2479	 0.138102324677885
2480	 0.137211265556348
2481	 0.135851197755356
2482	 0.134137091676232
2483	 0.134315525972902
2484	 0.134354483417032
2485	 0.133936401138549
2486	 0.135208845858647
2487	 0.134583246623599
2488	 0.133680073446833
2489	 0.134290794328275
2490	 0.132984374507179
2491	 0.131396654434462
2492	 0.131558673310362
2493	 0.131924608774117
2494	 0.13254560865456
2495	 0.133646865993076
2496	 0.133590285199547
2497	 0.131838954362962
2498	 0.130467472344084
2499	 0.130783434843629
2500	 0.130710066466298
